,"thumb_tm,f/e","thumb_tm,aa","thumb_mcp,f/e","thumb_mcp,aa","index_mcp,f/e","index_mcp,aa",index_pip,"middle_mcp,f/e","middle_mcp,aa",middle_pip,"ring_mcp,f/e","ring_mcp,aa",ring_pip,"pinky_mcp,f/e","pinky_mcp,aa",pinky_pip,time
0,[0.6104328727631219],[0.9807516162357888],[0.20562004658209307],[0.7421234842123999],[0.019693216571012643],[0.43686601041684964],[-0.48959572044476896],[0.18937562008261954],[0.5146916166594777],[-0.09378875846546252],[0.2712161588069291],[0.4996391304196703],[0.042930370733830624],[0.27951551914327255],[0.3181848048067301],[0.11129899258560352],1712639354.609133
1,[0.6104328727631219],[0.9807516162357888],[0.20562004658209307],[0.7421234842123999],[0.019693216571012643],[0.43686601041684964],[-0.48959572044476896],[0.18937562008261954],[0.5146916166594777],[-0.09378875846546252],[0.2712161588069291],[0.4996391304196703],[0.042930370733830624],[0.27951551914327255],[0.3181848048067301],[0.11129899258560352],1712639354.621192
2,[0.6104328727631219],[0.9807516162357888],[0.20562004658209307],[0.7421234842123999],[0.019693216571012643],[0.43686601041684964],[-0.48959572044476896],[0.18937562008261954],[0.5146916166594777],[-0.09378875846546252],[0.2712161588069291],[0.4996391304196703],[0.042930370733830624],[0.27951551914327255],[0.3181848048067301],[0.11129899258560352],1712639354.633569
3,[0.6104328727631219],[0.9807516162357888],[0.20562004658209307],[0.7421234842123999],[0.019693216571012643],[0.43686601041684964],[-0.48959572044476896],[0.18937562008261954],[0.5146916166594777],[-0.09378875846546252],[0.2712161588069291],[0.4996391304196703],[0.042930370733830624],[0.27951551914327255],[0.3181848048067301],[0.11129899258560352],1712639354.646121
4,[0.6104328727631219],[0.9807516162357888],[0.20562004658209307],[0.7421234842123999],[0.019693216571012643],[0.43686601041684964],[-0.48959572044476896],[0.18937562008261954],[0.5146916166594777],[-0.09378875846546252],[0.2712161588069291],[0.4996391304196703],[0.042930370733830624],[0.27951551914327255],[0.3181848048067301],[0.11129899258560352],1712639354.658155
5,[0.6104328727631219],[0.9807516162357888],[0.20562004658209307],[0.7421234842123999],[0.019693216571012643],[0.43686601041684964],[-0.48959572044476896],[0.18937562008261954],[0.5146916166594777],[-0.09378875846546252],[0.2712161588069291],[0.4996391304196703],[0.042930370733830624],[0.27951551914327255],[0.3181848048067301],[0.11129899258560352],1712639354.670711
6,[0.6104328727631219],[0.9807516162357888],[0.20562004658209307],[0.7421234842123999],[0.019693216571012643],[0.43686601041684964],[-0.48959572044476896],[0.18937562008261954],[0.5146916166594777],[-0.09378875846546252],[0.2712161588069291],[0.4996391304196703],[0.042930370733830624],[0.27951551914327255],[0.3181848048067301],[0.11129899258560352],1712639354.6831539
7,[0.6104328727631219],[0.9807516162357888],[0.20562004658209307],[0.7421234842123999],[0.019693216571012643],[0.43686601041684964],[-0.48959572044476896],[0.18937562008261954],[0.5146916166594777],[-0.09378875846546252],[0.2712161588069291],[0.4996391304196703],[0.042930370733830624],[0.27951551914327255],[0.3181848048067301],[0.11129899258560352],1712639354.6957078
8,[0.6104328727631219],[0.9807516162357888],[0.20562004658209307],[0.7421234842123999],[0.019693216571012643],[0.43686601041684964],[-0.48959572044476896],[0.18937562008261954],[0.5146916166594777],[-0.09378875846546252],[0.2712161588069291],[0.4996391304196703],[0.042930370733830624],[0.27951551914327255],[0.3181848048067301],[0.11129899258560352],1712639354.7061691
9,[0.6104328727631219],[0.9807516162357888],[0.20562004658209307],[0.7421234842123999],[0.019693216571012643],[0.43686601041684964],[-0.48959572044476896],[0.18937562008261954],[0.5146916166594777],[-0.09378875846546252],[0.2712161588069291],[0.4996391304196703],[0.042930370733830624],[0.27951551914327255],[0.3181848048067301],[0.11129899258560352],1712639354.7264981
10,[0.6547086971441723],[0.9207120477308206],[0.31990515843175593],[0.7301600775451355],[0.06701930522984383],[0.3789326215454327],[-0.39968586121030214],[0.13315544351698383],[0.37826287152907434],[-0.14825807711586772],[0.2369170442921217],[0.31294353013054377],[-0.03830952585716246],[0.2843805508100186],[0.1698462558117142],[0.06931042070498021],1712639354.744399
11,[0.6547086971441723],[0.9207120477308206],[0.31990515843175593],[0.7301600775451355],[0.06701930522984383],[0.3789326215454327],[-0.39968586121030214],[0.13315544351698383],[0.37826287152907434],[-0.14825807711586772],[0.2369170442921217],[0.31294353013054377],[-0.03830952585716246],[0.2843805508100186],[0.1698462558117142],[0.06931042070498021],1712639354.756702
12,[0.6547086971441723],[0.9207120477308206],[0.31990515843175593],[0.7301600775451355],[0.06701930522984383],[0.3789326215454327],[-0.39968586121030214],[0.13315544351698383],[0.37826287152907434],[-0.14825807711586772],[0.2369170442921217],[0.31294353013054377],[-0.03830952585716246],[0.2843805508100186],[0.1698462558117142],[0.06931042070498021],1712639354.7733178
13,[0.6547086971441723],[0.9207120477308206],[0.31990515843175593],[0.7301600775451355],[0.06701930522984383],[0.3789326215454327],[-0.39968586121030214],[0.13315544351698383],[0.37826287152907434],[-0.14825807711586772],[0.2369170442921217],[0.31294353013054377],[-0.03830952585716246],[0.2843805508100186],[0.1698462558117142],[0.06931042070498021],1712639354.78624
14,[0.6547086971441723],[0.9207120477308206],[0.31990515843175593],[0.7301600775451355],[0.06701930522984383],[0.3789326215454327],[-0.39968586121030214],[0.13315544351698383],[0.37826287152907434],[-0.14825807711586772],[0.2369170442921217],[0.31294353013054377],[-0.03830952585716246],[0.2843805508100186],[0.1698462558117142],[0.06931042070498021],1712639354.798979
15,[0.6547086971441723],[0.9207120477308206],[0.31990515843175593],[0.7301600775451355],[0.06701930522984383],[0.3789326215454327],[-0.39968586121030214],[0.13315544351698383],[0.37826287152907434],[-0.14825807711586772],[0.2369170442921217],[0.31294353013054377],[-0.03830952585716246],[0.2843805508100186],[0.1698462558117142],[0.06931042070498021],1712639354.810771
16,[0.6905202645307781],[0.8571756817041467],[0.3847557185525286],[0.7039930280525469],[0.07351908953913301],[0.3290885773706031],[-0.34014109662522773],[0.09321491344105078],[0.29967256651185126],[-0.17024994648529052],[0.22921748922647664],[0.22146687903847817],[-0.029944947572751807],[0.2773809659414849],[0.07132061567476292],[0.06290979903239664],1712639354.827113
17,[0.6905202645307781],[0.8571756817041467],[0.3847557185525286],[0.7039930280525469],[0.07351908953913301],[0.3290885773706031],[-0.34014109662522773],[0.09321491344105078],[0.29967256651185126],[-0.17024994648529052],[0.22921748922647664],[0.22146687903847817],[-0.029944947572751807],[0.2773809659414849],[0.07132061567476292],[0.06290979903239664],1712639354.8475058
18,[0.6905202645307781],[0.8571756817041467],[0.3847557185525286],[0.7039930280525469],[0.07351908953913301],[0.3290885773706031],[-0.34014109662522773],[0.09321491344105078],[0.29967256651185126],[-0.17024994648529052],[0.22921748922647664],[0.22146687903847817],[-0.029944947572751807],[0.2773809659414849],[0.07132061567476292],[0.06290979903239664],1712639354.858751
19,[0.6905202645307781],[0.8571756817041467],[0.3847557185525286],[0.7039930280525469],[0.07351908953913301],[0.3290885773706031],[-0.34014109662522773],[0.09321491344105078],[0.29967256651185126],[-0.17024994648529052],[0.22921748922647664],[0.22146687903847817],[-0.029944947572751807],[0.2773809659414849],[0.07132061567476292],[0.06290979903239664],1712639354.872179
20,[0.6905202645307781],[0.8571756817041467],[0.3847557185525286],[0.7039930280525469],[0.07351908953913301],[0.3290885773706031],[-0.34014109662522773],[0.09321491344105078],[0.29967256651185126],[-0.17024994648529052],[0.22921748922647664],[0.22146687903847817],[-0.029944947572751807],[0.2773809659414849],[0.07132061567476292],[0.06290979903239664],1712639354.88696
21,[0.6905202645307781],[0.8571756817041467],[0.3847557185525286],[0.7039930280525469],[0.07351908953913301],[0.3290885773706031],[-0.34014109662522773],[0.09321491344105078],[0.29967256651185126],[-0.17024994648529052],[0.22921748922647664],[0.22146687903847817],[-0.029944947572751807],[0.2773809659414849],[0.07132061567476292],[0.06290979903239664],1712639354.897129
22,[0.6905202645307781],[0.8571756817041467],[0.3847557185525286],[0.7039930280525469],[0.07351908953913301],[0.3290885773706031],[-0.34014109662522773],[0.09321491344105078],[0.29967256651185126],[-0.17024994648529052],[0.22921748922647664],[0.22146687903847817],[-0.029944947572751807],[0.2773809659414849],[0.07132061567476292],[0.06290979903239664],1712639354.90847
23,[0.6905202645307781],[0.8571756817041467],[0.3847557185525286],[0.7039930280525469],[0.07351908953913301],[0.3290885773706031],[-0.34014109662522773],[0.09321491344105078],[0.29967256651185126],[-0.17024994648529052],[0.22921748922647664],[0.22146687903847817],[-0.029944947572751807],[0.2773809659414849],[0.07132061567476292],[0.06290979903239664],1712639354.9211788
24,[0.7391684844667465],[0.8195695307020316],[0.46773704145699874],[0.7080603004727816],[0.0858350629493537],[0.28618140370253725],[-0.2776880637682511],[0.07585744820263565],[0.22161267145538316],[-0.17119847271565458],[0.20329101501751395],[0.1274082295811476],[-0.03493576209146003],[0.25308671824585577],[-0.025416852304792306],[0.053973332583490116],1712639354.940615
25,[0.7391684844667465],[0.8195695307020316],[0.46773704145699874],[0.7080603004727816],[0.0858350629493537],[0.28618140370253725],[-0.2776880637682511],[0.07585744820263565],[0.22161267145538316],[-0.17119847271565458],[0.20329101501751395],[0.1274082295811476],[-0.03493576209146003],[0.25308671824585577],[-0.025416852304792306],[0.053973332583490116],1712639354.953227
26,[0.7391684844667465],[0.8195695307020316],[0.46773704145699874],[0.7080603004727816],[0.0858350629493537],[0.28618140370253725],[-0.2776880637682511],[0.07585744820263565],[0.22161267145538316],[-0.17119847271565458],[0.20329101501751395],[0.1274082295811476],[-0.03493576209146003],[0.25308671824585577],[-0.025416852304792306],[0.053973332583490116],1712639354.966026
27,[0.7391684844667465],[0.8195695307020316],[0.46773704145699874],[0.7080603004727816],[0.0858350629493537],[0.28618140370253725],[-0.2776880637682511],[0.07585744820263565],[0.22161267145538316],[-0.17119847271565458],[0.20329101501751395],[0.1274082295811476],[-0.03493576209146003],[0.25308671824585577],[-0.025416852304792306],[0.053973332583490116],1712639354.978561
28,[0.7391684844667465],[0.8195695307020316],[0.46773704145699874],[0.7080603004727816],[0.0858350629493537],[0.28618140370253725],[-0.2776880637682511],[0.07585744820263565],[0.22161267145538316],[-0.17119847271565458],[0.20329101501751395],[0.1274082295811476],[-0.03493576209146003],[0.25308671824585577],[-0.025416852304792306],[0.053973332583490116],1712639354.991284
29,[0.7391684844667465],[0.8195695307020316],[0.46773704145699874],[0.7080603004727816],[0.0858350629493537],[0.28618140370253725],[-0.2776880637682511],[0.07585744820263565],[0.22161267145538316],[-0.17119847271565458],[0.20329101501751395],[0.1274082295811476],[-0.03493576209146003],[0.25308671824585577],[-0.025416852304792306],[0.053973332583490116],1712639355.003016
30,[0.7391684844667465],[0.8195695307020316],[0.46773704145699874],[0.7080603004727816],[0.0858350629493537],[0.28618140370253725],[-0.2776880637682511],[0.07585744820263565],[0.22161267145538316],[-0.17119847271565458],[0.20329101501751395],[0.1274082295811476],[-0.03493576209146003],[0.25308671824585577],[-0.025416852304792306],[0.053973332583490116],1712639355.018985
31,[0.6130732702589216],[0.9639607376952698],[0.4515485885701035],[0.9132361391844492],[0.12534852132773278],[0.1435520799424411],[-0.17079335599488804],[0.06959362618240944],[0.1072875705154574],[-0.17534173582844206],[0.027867649400709772],[0.07109211953180233],[-0.23609439887795702],[0.1480903371084911],[-0.09467711971367969],[-0.012045500841367074],1712639355.031541
32,[0.6130732702589216],[0.9639607376952698],[0.4515485885701035],[0.9132361391844492],[0.12534852132773278],[0.1435520799424411],[-0.17079335599488804],[0.06959362618240944],[0.1072875705154574],[-0.17534173582844206],[0.027867649400709772],[0.07109211953180233],[-0.23609439887795702],[0.1480903371084911],[-0.09467711971367969],[-0.012045500841367074],1712639355.043228
33,[0.6130732702589216],[0.9639607376952698],[0.4515485885701035],[0.9132361391844492],[0.12534852132773278],[0.1435520799424411],[-0.17079335599488804],[0.06959362618240944],[0.1072875705154574],[-0.17534173582844206],[0.027867649400709772],[0.07109211953180233],[-0.23609439887795702],[0.1480903371084911],[-0.09467711971367969],[-0.012045500841367074],1712639355.053983
34,[0.6130732702589216],[0.9639607376952698],[0.4515485885701035],[0.9132361391844492],[0.12534852132773278],[0.1435520799424411],[-0.17079335599488804],[0.06959362618240944],[0.1072875705154574],[-0.17534173582844206],[0.027867649400709772],[0.07109211953180233],[-0.23609439887795702],[0.1480903371084911],[-0.09467711971367969],[-0.012045500841367074],1712639355.066562
35,[0.6130732702589216],[0.9639607376952698],[0.4515485885701035],[0.9132361391844492],[0.12534852132773278],[0.1435520799424411],[-0.17079335599488804],[0.06959362618240944],[0.1072875705154574],[-0.17534173582844206],[0.027867649400709772],[0.07109211953180233],[-0.23609439887795702],[0.1480903371084911],[-0.09467711971367969],[-0.012045500841367074],1712639355.087166
36,[0.6130732702589216],[0.9639607376952698],[0.4515485885701035],[0.9132361391844492],[0.12534852132773278],[0.1435520799424411],[-0.17079335599488804],[0.06959362618240944],[0.1072875705154574],[-0.17534173582844206],[0.027867649400709772],[0.07109211953180233],[-0.23609439887795702],[0.1480903371084911],[-0.09467711971367969],[-0.012045500841367074],1712639355.1037319
37,[0.6130732702589216],[0.9639607376952698],[0.4515485885701035],[0.9132361391844492],[0.12534852132773278],[0.1435520799424411],[-0.17079335599488804],[0.06959362618240944],[0.1072875705154574],[-0.17534173582844206],[0.027867649400709772],[0.07109211953180233],[-0.23609439887795702],[0.1480903371084911],[-0.09467711971367969],[-0.012045500841367074],1712639355.116429
38,[0.6130732702589216],[0.9639607376952698],[0.4515485885701035],[0.9132361391844492],[0.12534852132773278],[0.1435520799424411],[-0.17079335599488804],[0.06959362618240944],[0.1072875705154574],[-0.17534173582844206],[0.027867649400709772],[0.07109211953180233],[-0.23609439887795702],[0.1480903371084911],[-0.09467711971367969],[-0.012045500841367074],1712639355.12683
39,[0.6130732702589216],[0.9639607376952698],[0.4515485885701035],[0.9132361391844492],[0.12534852132773278],[0.1435520799424411],[-0.17079335599488804],[0.06959362618240944],[0.1072875705154574],[-0.17534173582844206],[0.027867649400709772],[0.07109211953180233],[-0.23609439887795702],[0.1480903371084911],[-0.09467711971367969],[-0.012045500841367074],1712639355.1382232
40,[0.6130732702589216],[0.9639607376952698],[0.4515485885701035],[0.9132361391844492],[0.12534852132773278],[0.1435520799424411],[-0.17079335599488804],[0.06959362618240944],[0.1072875705154574],[-0.17534173582844206],[0.027867649400709772],[0.07109211953180233],[-0.23609439887795702],[0.1480903371084911],[-0.09467711971367969],[-0.012045500841367074],1712639355.150933
41,[-0.40869804557347816],[0.8884598833289166],[-0.39709070351446896],[0.7276336948620445],[0.5043747500578573],[0.05416826266280804],[0.2719248893542596],[0.38638304367180415],[-0.02614510213297287],[0.14200565553752661],[0.3434998387725253],[0.008125591704853989],[0.10141777617866352],[0.26382257399449816],[-0.17200243658046463],[0.09105191626517933],1712639355.163533
42,[-0.40869804557347816],[0.8884598833289166],[-0.39709070351446896],[0.7276336948620445],[0.5043747500578573],[0.05416826266280804],[0.2719248893542596],[0.38638304367180415],[-0.02614510213297287],[0.14200565553752661],[0.3434998387725253],[0.008125591704853989],[0.10141777617866352],[0.26382257399449816],[-0.17200243658046463],[0.09105191626517933],1712639355.179052
43,[-0.40869804557347816],[0.8884598833289166],[-0.39709070351446896],[0.7276336948620445],[0.5043747500578573],[0.05416826266280804],[0.2719248893542596],[0.38638304367180415],[-0.02614510213297287],[0.14200565553752661],[0.3434998387725253],[0.008125591704853989],[0.10141777617866352],[0.26382257399449816],[-0.17200243658046463],[0.09105191626517933],1712639355.1916
44,[-0.40869804557347816],[0.8884598833289166],[-0.39709070351446896],[0.7276336948620445],[0.5043747500578573],[0.05416826266280804],[0.2719248893542596],[0.38638304367180415],[-0.02614510213297287],[0.14200565553752661],[0.3434998387725253],[0.008125591704853989],[0.10141777617866352],[0.26382257399449816],[-0.17200243658046463],[0.09105191626517933],1712639355.205535
45,[-0.40869804557347816],[0.8884598833289166],[-0.39709070351446896],[0.7276336948620445],[0.5043747500578573],[0.05416826266280804],[0.2719248893542596],[0.38638304367180415],[-0.02614510213297287],[0.14200565553752661],[0.3434998387725253],[0.008125591704853989],[0.10141777617866352],[0.26382257399449816],[-0.17200243658046463],[0.09105191626517933],1712639355.218673
46,[-0.40869804557347816],[0.8884598833289166],[-0.39709070351446896],[0.7276336948620445],[0.5043747500578573],[0.05416826266280804],[0.2719248893542596],[0.38638304367180415],[-0.02614510213297287],[0.14200565553752661],[0.3434998387725253],[0.008125591704853989],[0.10141777617866352],[0.26382257399449816],[-0.17200243658046463],[0.09105191626517933],1712639355.2312682
47,[-0.40869804557347816],[0.8884598833289166],[-0.39709070351446896],[0.7276336948620445],[0.5043747500578573],[0.05416826266280804],[0.2719248893542596],[0.38638304367180415],[-0.02614510213297287],[0.14200565553752661],[0.3434998387725253],[0.008125591704853989],[0.10141777617866352],[0.26382257399449816],[-0.17200243658046463],[0.09105191626517933],1712639355.244679
48,[-0.48696373378027735],[0.7112164712240187],[-0.49819958721189955],[0.5613990283528744],[0.5600824784866957],[0.11680554494279674],[0.3555995442913454],[0.44609777823535],[-0.0055501850761529],[0.21522103699885523],[0.35764379198598106],[0.04030877732710579],[0.11261481266895013],[0.28237860743221427],[-0.18090865503874765],[0.1133591436137968],1712639355.2547688
49,[-0.48696373378027735],[0.7112164712240187],[-0.49819958721189955],[0.5613990283528744],[0.5600824784866957],[0.11680554494279674],[0.3555995442913454],[0.44609777823535],[-0.0055501850761529],[0.21522103699885523],[0.35764379198598106],[0.04030877732710579],[0.11261481266895013],[0.28237860743221427],[-0.18090865503874765],[0.1133591436137968],1712639355.2705321
50,[-0.48696373378027735],[0.7112164712240187],[-0.49819958721189955],[0.5613990283528744],[0.5600824784866957],[0.11680554494279674],[0.3555995442913454],[0.44609777823535],[-0.0055501850761529],[0.21522103699885523],[0.35764379198598106],[0.04030877732710579],[0.11261481266895013],[0.28237860743221427],[-0.18090865503874765],[0.1133591436137968],1712639355.2835588
51,[-0.48696373378027735],[0.7112164712240187],[-0.49819958721189955],[0.5613990283528744],[0.5600824784866957],[0.11680554494279674],[0.3555995442913454],[0.44609777823535],[-0.0055501850761529],[0.21522103699885523],[0.35764379198598106],[0.04030877732710579],[0.11261481266895013],[0.28237860743221427],[-0.18090865503874765],[0.1133591436137968],1712639355.296679
52,[-0.48696373378027735],[0.7112164712240187],[-0.49819958721189955],[0.5613990283528744],[0.5600824784866957],[0.11680554494279674],[0.3555995442913454],[0.44609777823535],[-0.0055501850761529],[0.21522103699885523],[0.35764379198598106],[0.04030877732710579],[0.11261481266895013],[0.28237860743221427],[-0.18090865503874765],[0.1133591436137968],1712639355.307313
53,[-0.48696373378027735],[0.7112164712240187],[-0.49819958721189955],[0.5613990283528744],[0.5600824784866957],[0.11680554494279674],[0.3555995442913454],[0.44609777823535],[-0.0055501850761529],[0.21522103699885523],[0.35764379198598106],[0.04030877732710579],[0.11261481266895013],[0.28237860743221427],[-0.18090865503874765],[0.1133591436137968],1712639355.318942
54,[-0.48696373378027735],[0.7112164712240187],[-0.49819958721189955],[0.5613990283528744],[0.5600824784866957],[0.11680554494279674],[0.3555995442913454],[0.44609777823535],[-0.0055501850761529],[0.21522103699885523],[0.35764379198598106],[0.04030877732710579],[0.11261481266895013],[0.28237860743221427],[-0.18090865503874765],[0.1133591436137968],1712639355.332234
55,[-0.435242761393996],[0.6731414660299232],[-0.46070140359247175],[0.35803786387177416],[0.5081065569338832],[0.1603400099795223],[0.25462818248687924],[0.4613093290294954],[0.01580038311707585],[0.20231243357776937],[0.40851637311564076],[0.05485659209433006],[0.16406668203028452],[0.3114763300821626],[-0.2184663053514807],[0.10653640485683984],1712639355.344803
56,[-0.435242761393996],[0.6731414660299232],[-0.46070140359247175],[0.35803786387177416],[0.5081065569338832],[0.1603400099795223],[0.25462818248687924],[0.4613093290294954],[0.01580038311707585],[0.20231243357776937],[0.40851637311564076],[0.05485659209433006],[0.16406668203028452],[0.3114763300821626],[-0.2184663053514807],[0.10653640485683984],1712639355.360815
57,[-0.435242761393996],[0.6731414660299232],[-0.46070140359247175],[0.35803786387177416],[0.5081065569338832],[0.1603400099795223],[0.25462818248687924],[0.4613093290294954],[0.01580038311707585],[0.20231243357776937],[0.40851637311564076],[0.05485659209433006],[0.16406668203028452],[0.3114763300821626],[-0.2184663053514807],[0.10653640485683984],1712639355.374004
58,[-0.435242761393996],[0.6731414660299232],[-0.46070140359247175],[0.35803786387177416],[0.5081065569338832],[0.1603400099795223],[0.25462818248687924],[0.4613093290294954],[0.01580038311707585],[0.20231243357776937],[0.40851637311564076],[0.05485659209433006],[0.16406668203028452],[0.3114763300821626],[-0.2184663053514807],[0.10653640485683984],1712639355.3937001
59,[-0.435242761393996],[0.6731414660299232],[-0.46070140359247175],[0.35803786387177416],[0.5081065569338832],[0.1603400099795223],[0.25462818248687924],[0.4613093290294954],[0.01580038311707585],[0.20231243357776937],[0.40851637311564076],[0.05485659209433006],[0.16406668203028452],[0.3114763300821626],[-0.2184663053514807],[0.10653640485683984],1712639355.408236
60,[-0.435242761393996],[0.6731414660299232],[-0.46070140359247175],[0.35803786387177416],[0.5081065569338832],[0.1603400099795223],[0.25462818248687924],[0.4613093290294954],[0.01580038311707585],[0.20231243357776937],[0.40851637311564076],[0.05485659209433006],[0.16406668203028452],[0.3114763300821626],[-0.2184663053514807],[0.10653640485683984],1712639355.430038
61,[-0.37542279086014607],[0.8510005945045964],[-0.34268653160007756],[0.6815707361060934],[-0.04774631827899896],[0.1942164439919368],[-0.32964928743411237],[0.3495551140798025],[0.05266159988168377],[0.1102468665375953],[0.3677919855461894],[0.07142441352902287],[0.1712063002233608],[0.2659556758900134],[-0.18580774101606437],[0.06495771940795397],1712639355.441987
62,[-0.37542279086014607],[0.8510005945045964],[-0.34268653160007756],[0.6815707361060934],[-0.04774631827899896],[0.1942164439919368],[-0.32964928743411237],[0.3495551140798025],[0.05266159988168377],[0.1102468665375953],[0.3677919855461894],[0.07142441352902287],[0.1712063002233608],[0.2659556758900134],[-0.18580774101606437],[0.06495771940795397],1712639355.45825
63,[-0.37542279086014607],[0.8510005945045964],[-0.34268653160007756],[0.6815707361060934],[-0.04774631827899896],[0.1942164439919368],[-0.32964928743411237],[0.3495551140798025],[0.05266159988168377],[0.1102468665375953],[0.3677919855461894],[0.07142441352902287],[0.1712063002233608],[0.2659556758900134],[-0.18580774101606437],[0.06495771940795397],1712639355.482888
64,[-0.37542279086014607],[0.8510005945045964],[-0.34268653160007756],[0.6815707361060934],[-0.04774631827899896],[0.1942164439919368],[-0.32964928743411237],[0.3495551140798025],[0.05266159988168377],[0.1102468665375953],[0.3677919855461894],[0.07142441352902287],[0.1712063002233608],[0.2659556758900134],[-0.18580774101606437],[0.06495771940795397],1712639355.494522
65,[-0.37542279086014607],[0.8510005945045964],[-0.34268653160007756],[0.6815707361060934],[-0.04774631827899896],[0.1942164439919368],[-0.32964928743411237],[0.3495551140798025],[0.05266159988168377],[0.1102468665375953],[0.3677919855461894],[0.07142441352902287],[0.1712063002233608],[0.2659556758900134],[-0.18580774101606437],[0.06495771940795397],1712639355.506037
66,[-0.37542279086014607],[0.8510005945045964],[-0.34268653160007756],[0.6815707361060934],[-0.04774631827899896],[0.1942164439919368],[-0.32964928743411237],[0.3495551140798025],[0.05266159988168377],[0.1102468665375953],[0.3677919855461894],[0.07142441352902287],[0.1712063002233608],[0.2659556758900134],[-0.18580774101606437],[0.06495771940795397],1712639355.519552
67,[0.06478255776672531],[0.9481104262863541],[0.037364495144849186],[0.8907042142129987],[-0.1810699661815649],[0.34946417366477633],[-0.7667349681946176],[0.19112096910037318],[0.00398627185732198],[-0.11093712884475207],[0.1711502730217748],[0.06149730254573552],[-0.1305555501273387],[-0.03503259218596646],[-0.18556483364197682],[-0.3408605216790076],1712639355.531757
68,[0.06478255776672531],[0.9481104262863541],[0.037364495144849186],[0.8907042142129987],[-0.1810699661815649],[0.34946417366477633],[-0.7667349681946176],[0.19112096910037318],[0.00398627185732198],[-0.11093712884475207],[0.1711502730217748],[0.06149730254573552],[-0.1305555501273387],[-0.03503259218596646],[-0.18556483364197682],[-0.3408605216790076],1712639355.546775
69,[0.06478255776672531],[0.9481104262863541],[0.037364495144849186],[0.8907042142129987],[-0.1810699661815649],[0.34946417366477633],[-0.7667349681946176],[0.19112096910037318],[0.00398627185732198],[-0.11093712884475207],[0.1711502730217748],[0.06149730254573552],[-0.1305555501273387],[-0.03503259218596646],[-0.18556483364197682],[-0.3408605216790076],1712639355.559974
70,[0.06478255776672531],[0.9481104262863541],[0.037364495144849186],[0.8907042142129987],[-0.1810699661815649],[0.34946417366477633],[-0.7667349681946176],[0.19112096910037318],[0.00398627185732198],[-0.11093712884475207],[0.1711502730217748],[0.06149730254573552],[-0.1305555501273387],[-0.03503259218596646],[-0.18556483364197682],[-0.3408605216790076],1712639355.575594
71,[0.06478255776672531],[0.9481104262863541],[0.037364495144849186],[0.8907042142129987],[-0.1810699661815649],[0.34946417366477633],[-0.7667349681946176],[0.19112096910037318],[0.00398627185732198],[-0.11093712884475207],[0.1711502730217748],[0.06149730254573552],[-0.1305555501273387],[-0.03503259218596646],[-0.18556483364197682],[-0.3408605216790076],1712639355.588567
72,[0.06478255776672531],[0.9481104262863541],[0.037364495144849186],[0.8907042142129987],[-0.1810699661815649],[0.34946417366477633],[-0.7667349681946176],[0.19112096910037318],[0.00398627185732198],[-0.11093712884475207],[0.1711502730217748],[0.06149730254573552],[-0.1305555501273387],[-0.03503259218596646],[-0.18556483364197682],[-0.3408605216790076],1712639355.6044521
73,[0.06478255776672531],[0.9481104262863541],[0.037364495144849186],[0.8907042142129987],[-0.1810699661815649],[0.34946417366477633],[-0.7667349681946176],[0.19112096910037318],[0.00398627185732198],[-0.11093712884475207],[0.1711502730217748],[0.06149730254573552],[-0.1305555501273387],[-0.03503259218596646],[-0.18556483364197682],[-0.3408605216790076],1712639355.625265
74,[0.20613559496096437],[0.9269730982236387],[0.1581402498787548],[0.8904702317645021],[0.005871495744801259],[0.24354856731130414],[-0.4660421729136534],[0.017987948923905765],[-0.021688847677854322],[-0.36070488112863325],[-0.12434071263628574],[0.12781374177325572],[-0.5791845695407007],[-0.7014881414767217],[0.674843484755187],[-1.9429040744688226],1712639355.644945
75,[0.20613559496096437],[0.9269730982236387],[0.1581402498787548],[0.8904702317645021],[0.005871495744801259],[0.24354856731130414],[-0.4660421729136534],[0.017987948923905765],[-0.021688847677854322],[-0.36070488112863325],[-0.12434071263628574],[0.12781374177325572],[-0.5791845695407007],[-0.7014881414767217],[0.674843484755187],[-1.9429040744688226],1712639355.658068
76,[0.20613559496096437],[0.9269730982236387],[0.1581402498787548],[0.8904702317645021],[0.005871495744801259],[0.24354856731130414],[-0.4660421729136534],[0.017987948923905765],[-0.021688847677854322],[-0.36070488112863325],[-0.12434071263628574],[0.12781374177325572],[-0.5791845695407007],[-0.7014881414767217],[0.674843484755187],[-1.9429040744688226],1712639355.6747122
77,[0.20613559496096437],[0.9269730982236387],[0.1581402498787548],[0.8904702317645021],[0.005871495744801259],[0.24354856731130414],[-0.4660421729136534],[0.017987948923905765],[-0.021688847677854322],[-0.36070488112863325],[-0.12434071263628574],[0.12781374177325572],[-0.5791845695407007],[-0.7014881414767217],[0.674843484755187],[-1.9429040744688226],1712639355.687501
78,[0.20613559496096437],[0.9269730982236387],[0.1581402498787548],[0.8904702317645021],[0.005871495744801259],[0.24354856731130414],[-0.4660421729136534],[0.017987948923905765],[-0.021688847677854322],[-0.36070488112863325],[-0.12434071263628574],[0.12781374177325572],[-0.5791845695407007],[-0.7014881414767217],[0.674843484755187],[-1.9429040744688226],1712639355.698998
79,[0.20613559496096437],[0.9269730982236387],[0.1581402498787548],[0.8904702317645021],[0.005871495744801259],[0.24354856731130414],[-0.4660421729136534],[0.017987948923905765],[-0.021688847677854322],[-0.36070488112863325],[-0.12434071263628574],[0.12781374177325572],[-0.5791845695407007],[-0.7014881414767217],[0.674843484755187],[-1.9429040744688226],1712639355.7118678
80,[0.19463842516453078],[0.8202111891428936],[0.14396997993424213],[0.8282023824440593],[0.20258241959783657],[0.0989505851376422],[0.038071144708524185],[-0.03423157929015441],[0.04809797887879211],[-0.22216702242757885],[-0.45256640898373374],[0.44822627653570934],[-1.8825961400454119],[-1.0381370946475306],[1.1268272577510412],[-2.806182001249988],1712639355.734327
81,[0.19463842516453078],[0.8202111891428936],[0.14396997993424213],[0.8282023824440593],[0.20258241959783657],[0.0989505851376422],[0.038071144708524185],[-0.03423157929015441],[0.04809797887879211],[-0.22216702242757885],[-0.45256640898373374],[0.44822627653570934],[-1.8825961400454119],[-1.0381370946475306],[1.1268272577510412],[-2.806182001249988],1712639355.746757
82,[0.19463842516453078],[0.8202111891428936],[0.14396997993424213],[0.8282023824440593],[0.20258241959783657],[0.0989505851376422],[0.038071144708524185],[-0.03423157929015441],[0.04809797887879211],[-0.22216702242757885],[-0.45256640898373374],[0.44822627653570934],[-1.8825961400454119],[-1.0381370946475306],[1.1268272577510412],[-2.806182001249988],1712639355.759242
83,[0.19463842516453078],[0.8202111891428936],[0.14396997993424213],[0.8282023824440593],[0.20258241959783657],[0.0989505851376422],[0.038071144708524185],[-0.03423157929015441],[0.04809797887879211],[-0.22216702242757885],[-0.45256640898373374],[0.44822627653570934],[-1.8825961400454119],[-1.0381370946475306],[1.1268272577510412],[-2.806182001249988],1712639355.771862
84,[0.19463842516453078],[0.8202111891428936],[0.14396997993424213],[0.8282023824440593],[0.20258241959783657],[0.0989505851376422],[0.038071144708524185],[-0.03423157929015441],[0.04809797887879211],[-0.22216702242757885],[-0.45256640898373374],[0.44822627653570934],[-1.8825961400454119],[-1.0381370946475306],[1.1268272577510412],[-2.806182001249988],1712639355.784414
85,[0.26253036802322544],[0.8304652866107866],[0.17061980117905848],[0.7754094548968311],[0.0961724938663821],[-0.029787078748013233],[-0.061107116742567316],[-0.1526042327104929],[0.20374268580831884],[-0.5981332914510481],[-0.8700478682115502],[0.7634610725098046],[-2.282689700296753],[-1.3431204750142591],[1.349372522570136],[-2.932537550436213],1712639355.80672
86,[0.26253036802322544],[0.8304652866107866],[0.17061980117905848],[0.7754094548968311],[0.0961724938663821],[-0.029787078748013233],[-0.061107116742567316],[-0.1526042327104929],[0.20374268580831884],[-0.5981332914510481],[-0.8700478682115502],[0.7634610725098046],[-2.282689700296753],[-1.3431204750142591],[1.349372522570136],[-2.932537550436213],1712639355.81867
87,[0.26253036802322544],[0.8304652866107866],[0.17061980117905848],[0.7754094548968311],[0.0961724938663821],[-0.029787078748013233],[-0.061107116742567316],[-0.1526042327104929],[0.20374268580831884],[-0.5981332914510481],[-0.8700478682115502],[0.7634610725098046],[-2.282689700296753],[-1.3431204750142591],[1.349372522570136],[-2.932537550436213],1712639355.8300512
88,[0.26253036802322544],[0.8304652866107866],[0.17061980117905848],[0.7754094548968311],[0.0961724938663821],[-0.029787078748013233],[-0.061107116742567316],[-0.1526042327104929],[0.20374268580831884],[-0.5981332914510481],[-0.8700478682115502],[0.7634610725098046],[-2.282689700296753],[-1.3431204750142591],[1.349372522570136],[-2.932537550436213],1712639355.8487308
89,[0.26253036802322544],[0.8304652866107866],[0.17061980117905848],[0.7754094548968311],[0.0961724938663821],[-0.029787078748013233],[-0.061107116742567316],[-0.1526042327104929],[0.20374268580831884],[-0.5981332914510481],[-0.8700478682115502],[0.7634610725098046],[-2.282689700296753],[-1.3431204750142591],[1.349372522570136],[-2.932537550436213],1712639355.861322
90,[0.26253036802322544],[0.8304652866107866],[0.17061980117905848],[0.7754094548968311],[0.0961724938663821],[-0.029787078748013233],[-0.061107116742567316],[-0.1526042327104929],[0.20374268580831884],[-0.5981332914510481],[-0.8700478682115502],[0.7634610725098046],[-2.282689700296753],[-1.3431204750142591],[1.349372522570136],[-2.932537550436213],1712639355.8734999
91,[0.26253036802322544],[0.8304652866107866],[0.17061980117905848],[0.7754094548968311],[0.0961724938663821],[-0.029787078748013233],[-0.061107116742567316],[-0.1526042327104929],[0.20374268580831884],[-0.5981332914510481],[-0.8700478682115502],[0.7634610725098046],[-2.282689700296753],[-1.3431204750142591],[1.349372522570136],[-2.932537550436213],1712639355.894567
92,[0.3162166361562189],[0.8003430111116818],[0.2513969842564703],[0.7818783855034669],[-0.04012661167003743],[0.1072540550231103],[-0.1738250625174231],[-0.8935410069588634],[0.7771501468872865],[-2.261730805321534],[-1.0732129794092435],[1.0019616248953136],[-2.5108732222392875],[-1.279763001094527],[1.30685972370553],[-2.8784180432374034],1712639355.908684
93,[0.3162166361562189],[0.8003430111116818],[0.2513969842564703],[0.7818783855034669],[-0.04012661167003743],[0.1072540550231103],[-0.1738250625174231],[-0.8935410069588634],[0.7771501468872865],[-2.261730805321534],[-1.0732129794092435],[1.0019616248953136],[-2.5108732222392875],[-1.279763001094527],[1.30685972370553],[-2.8784180432374034],1712639355.920629
94,[0.3162166361562189],[0.8003430111116818],[0.2513969842564703],[0.7818783855034669],[-0.04012661167003743],[0.1072540550231103],[-0.1738250625174231],[-0.8935410069588634],[0.7771501468872865],[-2.261730805321534],[-1.0732129794092435],[1.0019616248953136],[-2.5108732222392875],[-1.279763001094527],[1.30685972370553],[-2.8784180432374034],1712639355.93604
95,[0.3162166361562189],[0.8003430111116818],[0.2513969842564703],[0.7818783855034669],[-0.04012661167003743],[0.1072540550231103],[-0.1738250625174231],[-0.8935410069588634],[0.7771501468872865],[-2.261730805321534],[-1.0732129794092435],[1.0019616248953136],[-2.5108732222392875],[-1.279763001094527],[1.30685972370553],[-2.8784180432374034],1712639355.948642
96,[0.3162166361562189],[0.8003430111116818],[0.2513969842564703],[0.7818783855034669],[-0.04012661167003743],[0.1072540550231103],[-0.1738250625174231],[-0.8935410069588634],[0.7771501468872865],[-2.261730805321534],[-1.0732129794092435],[1.0019616248953136],[-2.5108732222392875],[-1.279763001094527],[1.30685972370553],[-2.8784180432374034],1712639355.959523
97,[0.3162166361562189],[0.8003430111116818],[0.2513969842564703],[0.7818783855034669],[-0.04012661167003743],[0.1072540550231103],[-0.1738250625174231],[-0.8935410069588634],[0.7771501468872865],[-2.261730805321534],[-1.0732129794092435],[1.0019616248953136],[-2.5108732222392875],[-1.279763001094527],[1.30685972370553],[-2.8784180432374034],1712639355.978256
98,[0.45041864690413946],[0.8075600158535696],[0.4818650501579976],[0.8517594049818688],[-0.5671999033547638],[0.4969108079660984],[-1.3123796901206293],[-1.1108247668689792],[0.8826181364720738],[-2.2803688899676784],[-0.9283373966405107],[0.7467053490778874],[-2.3219353892202017],[-0.7528755132968685],[0.5841289530053504],[-2.3124127611325536],1712639355.996088
99,[0.45041864690413946],[0.8075600158535696],[0.4818650501579976],[0.8517594049818688],[-0.5671999033547638],[0.4969108079660984],[-1.3123796901206293],[-1.1108247668689792],[0.8826181364720738],[-2.2803688899676784],[-0.9283373966405107],[0.7467053490778874],[-2.3219353892202017],[-0.7528755132968685],[0.5841289530053504],[-2.3124127611325536],1712639356.008652
100,[0.45041864690413946],[0.8075600158535696],[0.4818650501579976],[0.8517594049818688],[-0.5671999033547638],[0.4969108079660984],[-1.3123796901206293],[-1.1108247668689792],[0.8826181364720738],[-2.2803688899676784],[-0.9283373966405107],[0.7467053490778874],[-2.3219353892202017],[-0.7528755132968685],[0.5841289530053504],[-2.3124127611325536],1712639356.021333
101,[0.45041864690413946],[0.8075600158535696],[0.4818650501579976],[0.8517594049818688],[-0.5671999033547638],[0.4969108079660984],[-1.3123796901206293],[-1.1108247668689792],[0.8826181364720738],[-2.2803688899676784],[-0.9283373966405107],[0.7467053490778874],[-2.3219353892202017],[-0.7528755132968685],[0.5841289530053504],[-2.3124127611325536],1712639356.0370429
102,[0.45041864690413946],[0.8075600158535696],[0.4818650501579976],[0.8517594049818688],[-0.5671999033547638],[0.4969108079660984],[-1.3123796901206293],[-1.1108247668689792],[0.8826181364720738],[-2.2803688899676784],[-0.9283373966405107],[0.7467053490778874],[-2.3219353892202017],[-0.7528755132968685],[0.5841289530053504],[-2.3124127611325536],1712639356.050633
103,[0.45041864690413946],[0.8075600158535696],[0.4818650501579976],[0.8517594049818688],[-0.5671999033547638],[0.4969108079660984],[-1.3123796901206293],[-1.1108247668689792],[0.8826181364720738],[-2.2803688899676784],[-0.9283373966405107],[0.7467053490778874],[-2.3219353892202017],[-0.7528755132968685],[0.5841289530053504],[-2.3124127611325536],1712639356.068238
104,[0.29991564566936324],[0.8688590641739278],[0.28982467615541385],[0.8815009599136137],[-0.6748567625845396],[0.5964720470512767],[-1.6760364656099644],[-0.5778692622011806],[0.31929041399598],[-1.5814636901641463],[-0.44421163107418643],[0.2926352200461407],[-1.4850636399327501],[-0.14384275858565515],[-0.005555890325135759],[-0.914533282801143],1712639356.080808
105,[0.29991564566936324],[0.8688590641739278],[0.28982467615541385],[0.8815009599136137],[-0.6748567625845396],[0.5964720470512767],[-1.6760364656099644],[-0.5778692622011806],[0.31929041399598],[-1.5814636901641463],[-0.44421163107418643],[0.2926352200461407],[-1.4850636399327501],[-0.14384275858565515],[-0.005555890325135759],[-0.914533282801143],1712639356.0919511
106,[0.29991564566936324],[0.8688590641739278],[0.28982467615541385],[0.8815009599136137],[-0.6748567625845396],[0.5964720470512767],[-1.6760364656099644],[-0.5778692622011806],[0.31929041399598],[-1.5814636901641463],[-0.44421163107418643],[0.2926352200461407],[-1.4850636399327501],[-0.14384275858565515],[-0.005555890325135759],[-0.914533282801143],1712639356.104599
107,[0.29991564566936324],[0.8688590641739278],[0.28982467615541385],[0.8815009599136137],[-0.6748567625845396],[0.5964720470512767],[-1.6760364656099644],[-0.5778692622011806],[0.31929041399598],[-1.5814636901641463],[-0.44421163107418643],[0.2926352200461407],[-1.4850636399327501],[-0.14384275858565515],[-0.005555890325135759],[-0.914533282801143],1712639356.116451
108,[0.29991564566936324],[0.8688590641739278],[0.28982467615541385],[0.8815009599136137],[-0.6748567625845396],[0.5964720470512767],[-1.6760364656099644],[-0.5778692622011806],[0.31929041399598],[-1.5814636901641463],[-0.44421163107418643],[0.2926352200461407],[-1.4850636399327501],[-0.14384275858565515],[-0.005555890325135759],[-0.914533282801143],1712639356.129386
109,[0.29991564566936324],[0.8688590641739278],[0.28982467615541385],[0.8815009599136137],[-0.6748567625845396],[0.5964720470512767],[-1.6760364656099644],[-0.5778692622011806],[0.31929041399598],[-1.5814636901641463],[-0.44421163107418643],[0.2926352200461407],[-1.4850636399327501],[-0.14384275858565515],[-0.005555890325135759],[-0.914533282801143],1712639356.1402922
110,[0.29991564566936324],[0.8688590641739278],[0.28982467615541385],[0.8815009599136137],[-0.6748567625845396],[0.5964720470512767],[-1.6760364656099644],[-0.5778692622011806],[0.31929041399598],[-1.5814636901641463],[-0.44421163107418643],[0.2926352200461407],[-1.4850636399327501],[-0.14384275858565515],[-0.005555890325135759],[-0.914533282801143],1712639356.152816
111,[0.29991564566936324],[0.8688590641739278],[0.28982467615541385],[0.8815009599136137],[-0.6748567625845396],[0.5964720470512767],[-1.6760364656099644],[-0.5778692622011806],[0.31929041399598],[-1.5814636901641463],[-0.44421163107418643],[0.2926352200461407],[-1.4850636399327501],[-0.14384275858565515],[-0.005555890325135759],[-0.914533282801143],1712639356.171974
112,[-0.20790704145404443],[0.9343306061043621],[-0.20394551657613078],[0.8764869405544851],[-0.752269790971429],[0.31808639265552385],[-1.4370458614190498],[-0.3644492876190541],[0.09702111577184569],[-0.7860522895754763],[0.0017594066015395313],[0.07606216363264974],[-0.30985506622923126],[0.2552008002602172],[-0.17973567373465296],[0.08894223280461527],1712639356.18526
113,[-0.20790704145404443],[0.9343306061043621],[-0.20394551657613078],[0.8764869405544851],[-0.752269790971429],[0.31808639265552385],[-1.4370458614190498],[-0.3644492876190541],[0.09702111577184569],[-0.7860522895754763],[0.0017594066015395313],[0.07606216363264974],[-0.30985506622923126],[0.2552008002602172],[-0.17973567373465296],[0.08894223280461527],1712639356.1974652
114,[-0.20790704145404443],[0.9343306061043621],[-0.20394551657613078],[0.8764869405544851],[-0.752269790971429],[0.31808639265552385],[-1.4370458614190498],[-0.3644492876190541],[0.09702111577184569],[-0.7860522895754763],[0.0017594066015395313],[0.07606216363264974],[-0.30985506622923126],[0.2552008002602172],[-0.17973567373465296],[0.08894223280461527],1712639356.209981
115,[-0.20790704145404443],[0.9343306061043621],[-0.20394551657613078],[0.8764869405544851],[-0.752269790971429],[0.31808639265552385],[-1.4370458614190498],[-0.3644492876190541],[0.09702111577184569],[-0.7860522895754763],[0.0017594066015395313],[0.07606216363264974],[-0.30985506622923126],[0.2552008002602172],[-0.17973567373465296],[0.08894223280461527],1712639356.222604
116,[-0.20790704145404443],[0.9343306061043621],[-0.20394551657613078],[0.8764869405544851],[-0.752269790971429],[0.31808639265552385],[-1.4370458614190498],[-0.3644492876190541],[0.09702111577184569],[-0.7860522895754763],[0.0017594066015395313],[0.07606216363264974],[-0.30985506622923126],[0.2552008002602172],[-0.17973567373465296],[0.08894223280461527],1712639356.235175
117,[-0.20790704145404443],[0.9343306061043621],[-0.20394551657613078],[0.8764869405544851],[-0.752269790971429],[0.31808639265552385],[-1.4370458614190498],[-0.3644492876190541],[0.09702111577184569],[-0.7860522895754763],[0.0017594066015395313],[0.07606216363264974],[-0.30985506622923126],[0.2552008002602172],[-0.17973567373465296],[0.08894223280461527],1712639356.257312
118,[-0.6482814537960596],[0.525372629370563],[-0.677713782849592],[0.5255444972524336],[-0.0007163880600836854],[-0.016440563278823875],[-0.18057441290707144],[0.2508276988880143],[-0.04697665682334858],[0.052998078194885855],[0.34986458187786207],[0.08708712980598333],[0.15204228972664313],[0.43726242808985577],[-0.2063527006604439],[0.2728669675762063],1712639356.2700539
119,[-0.6482814537960596],[0.525372629370563],[-0.677713782849592],[0.5255444972524336],[-0.0007163880600836854],[-0.016440563278823875],[-0.18057441290707144],[0.2508276988880143],[-0.04697665682334858],[0.052998078194885855],[0.34986458187786207],[0.08708712980598333],[0.15204228972664313],[0.43726242808985577],[-0.2063527006604439],[0.2728669675762063],1712639356.282642
120,[-0.6482814537960596],[0.525372629370563],[-0.677713782849592],[0.5255444972524336],[-0.0007163880600836854],[-0.016440563278823875],[-0.18057441290707144],[0.2508276988880143],[-0.04697665682334858],[0.052998078194885855],[0.34986458187786207],[0.08708712980598333],[0.15204228972664313],[0.43726242808985577],[-0.2063527006604439],[0.2728669675762063],1712639356.296572
121,[-0.6482814537960596],[0.525372629370563],[-0.677713782849592],[0.5255444972524336],[-0.0007163880600836854],[-0.016440563278823875],[-0.18057441290707144],[0.2508276988880143],[-0.04697665682334858],[0.052998078194885855],[0.34986458187786207],[0.08708712980598333],[0.15204228972664313],[0.43726242808985577],[-0.2063527006604439],[0.2728669675762063],1712639356.310723
122,[-0.6482814537960596],[0.525372629370563],[-0.677713782849592],[0.5255444972524336],[-0.0007163880600836854],[-0.016440563278823875],[-0.18057441290707144],[0.2508276988880143],[-0.04697665682334858],[0.052998078194885855],[0.34986458187786207],[0.08708712980598333],[0.15204228972664313],[0.43726242808985577],[-0.2063527006604439],[0.2728669675762063],1712639356.325562
123,[-0.6482814537960596],[0.525372629370563],[-0.677713782849592],[0.5255444972524336],[-0.0007163880600836854],[-0.016440563278823875],[-0.18057441290707144],[0.2508276988880143],[-0.04697665682334858],[0.052998078194885855],[0.34986458187786207],[0.08708712980598333],[0.15204228972664313],[0.43726242808985577],[-0.2063527006604439],[0.2728669675762063],1712639356.348916
124,[-0.47989123156883895],[0.339269041863036],[-0.46784887025851224],[0.22511333862172497],[0.3511755776545964],[0.1980448537841299],[0.24499604565658303],[0.517477259794168],[0.1412985463700347],[0.34895395942784685],[0.5386388055372031],[0.14262079811225098],[0.37189581469836164],[0.4763988460572701],[-0.1579676182404734],[0.2861745129440132],1712639356.36366
125,[-0.47989123156883895],[0.339269041863036],[-0.46784887025851224],[0.22511333862172497],[0.3511755776545964],[0.1980448537841299],[0.24499604565658303],[0.517477259794168],[0.1412985463700347],[0.34895395942784685],[0.5386388055372031],[0.14262079811225098],[0.37189581469836164],[0.4763988460572701],[-0.1579676182404734],[0.2861745129440132],1712639356.3765929
126,[-0.47989123156883895],[0.339269041863036],[-0.46784887025851224],[0.22511333862172497],[0.3511755776545964],[0.1980448537841299],[0.24499604565658303],[0.517477259794168],[0.1412985463700347],[0.34895395942784685],[0.5386388055372031],[0.14262079811225098],[0.37189581469836164],[0.4763988460572701],[-0.1579676182404734],[0.2861745129440132],1712639356.3894951
127,[-0.47989123156883895],[0.339269041863036],[-0.46784887025851224],[0.22511333862172497],[0.3511755776545964],[0.1980448537841299],[0.24499604565658303],[0.517477259794168],[0.1412985463700347],[0.34895395942784685],[0.5386388055372031],[0.14262079811225098],[0.37189581469836164],[0.4763988460572701],[-0.1579676182404734],[0.2861745129440132],1712639356.408365
128,[-0.47989123156883895],[0.339269041863036],[-0.46784887025851224],[0.22511333862172497],[0.3511755776545964],[0.1980448537841299],[0.24499604565658303],[0.517477259794168],[0.1412985463700347],[0.34895395942784685],[0.5386388055372031],[0.14262079811225098],[0.37189581469836164],[0.4763988460572701],[-0.1579676182404734],[0.2861745129440132],1712639356.421986
129,[-0.47989123156883895],[0.339269041863036],[-0.46784887025851224],[0.22511333862172497],[0.3511755776545964],[0.1980448537841299],[0.24499604565658303],[0.517477259794168],[0.1412985463700347],[0.34895395942784685],[0.5386388055372031],[0.14262079811225098],[0.37189581469836164],[0.4763988460572701],[-0.1579676182404734],[0.2861745129440132],1712639356.43536
130,[-0.47989123156883895],[0.339269041863036],[-0.46784887025851224],[0.22511333862172497],[0.3511755776545964],[0.1980448537841299],[0.24499604565658303],[0.517477259794168],[0.1412985463700347],[0.34895395942784685],[0.5386388055372031],[0.14262079811225098],[0.37189581469836164],[0.4763988460572701],[-0.1579676182404734],[0.2861745129440132],1712639356.4491148
131,[-0.4402084462596078],[0.32326704462308825],[-0.46215168909774623],[0.3079500342959937],[0.577503030907595],[0.23197157346222308],[0.393602886700743],[0.6280092313769169],[0.012031305866157317],[0.44163145629124734],[0.47059554503188056],[-0.01887145276114853],[0.2133769868988058],[0.20454915809945207],[-0.37865500716907735],[-0.10068177659260016],1712639356.468441
132,[-0.4402084462596078],[0.32326704462308825],[-0.46215168909774623],[0.3079500342959937],[0.577503030907595],[0.23197157346222308],[0.393602886700743],[0.6280092313769169],[0.012031305866157317],[0.44163145629124734],[0.47059554503188056],[-0.01887145276114853],[0.2133769868988058],[0.20454915809945207],[-0.37865500716907735],[-0.10068177659260016],1712639356.486179
133,[-0.4402084462596078],[0.32326704462308825],[-0.46215168909774623],[0.3079500342959937],[0.577503030907595],[0.23197157346222308],[0.393602886700743],[0.6280092313769169],[0.012031305866157317],[0.44163145629124734],[0.47059554503188056],[-0.01887145276114853],[0.2133769868988058],[0.20454915809945207],[-0.37865500716907735],[-0.10068177659260016],1712639356.497482
134,[-0.4402084462596078],[0.32326704462308825],[-0.46215168909774623],[0.3079500342959937],[0.577503030907595],[0.23197157346222308],[0.393602886700743],[0.6280092313769169],[0.012031305866157317],[0.44163145629124734],[0.47059554503188056],[-0.01887145276114853],[0.2133769868988058],[0.20454915809945207],[-0.37865500716907735],[-0.10068177659260016],1712639356.510595
135,[-0.4402084462596078],[0.32326704462308825],[-0.46215168909774623],[0.3079500342959937],[0.577503030907595],[0.23197157346222308],[0.393602886700743],[0.6280092313769169],[0.012031305866157317],[0.44163145629124734],[0.47059554503188056],[-0.01887145276114853],[0.2133769868988058],[0.20454915809945207],[-0.37865500716907735],[-0.10068177659260016],1712639356.531349
136,[-0.3187275629854965],[0.6937741148931679],[-0.26386923836683773],[0.8133856703306099],[0.5783068877795953],[0.06581925702001531],[0.3755031653851968],[0.07845951021503314],[-0.08951796106150513],[-0.19389694368904856],[-0.34402974865479796],[-0.003327029219754801],[-0.8737495737150913],[-0.7197088930192529],[0.2737132693557486],[-1.5140911160682429],1712639356.5466292
137,[-0.3187275629854965],[0.6937741148931679],[-0.26386923836683773],[0.8133856703306099],[0.5783068877795953],[0.06581925702001531],[0.3755031653851968],[0.07845951021503314],[-0.08951796106150513],[-0.19389694368904856],[-0.34402974865479796],[-0.003327029219754801],[-0.8737495737150913],[-0.7197088930192529],[0.2737132693557486],[-1.5140911160682429],1712639356.559243
138,[-0.3187275629854965],[0.6937741148931679],[-0.26386923836683773],[0.8133856703306099],[0.5783068877795953],[0.06581925702001531],[0.3755031653851968],[0.07845951021503314],[-0.08951796106150513],[-0.19389694368904856],[-0.34402974865479796],[-0.003327029219754801],[-0.8737495737150913],[-0.7197088930192529],[0.2737132693557486],[-1.5140911160682429],1712639356.5772128
139,[-0.3187275629854965],[0.6937741148931679],[-0.26386923836683773],[0.8133856703306099],[0.5783068877795953],[0.06581925702001531],[0.3755031653851968],[0.07845951021503314],[-0.08951796106150513],[-0.19389694368904856],[-0.34402974865479796],[-0.003327029219754801],[-0.8737495737150913],[-0.7197088930192529],[0.2737132693557486],[-1.5140911160682429],1712639356.5898361
140,[-0.3187275629854965],[0.6937741148931679],[-0.26386923836683773],[0.8133856703306099],[0.5783068877795953],[0.06581925702001531],[0.3755031653851968],[0.07845951021503314],[-0.08951796106150513],[-0.19389694368904856],[-0.34402974865479796],[-0.003327029219754801],[-0.8737495737150913],[-0.7197088930192529],[0.2737132693557486],[-1.5140911160682429],1712639356.602436
141,[0.06742596072504094],[0.7570836410720767],[0.12544220192774855],[0.8237611586454795],[0.04248854338092465],[0.15943872221072522],[-0.17743537268909226],[-0.5578237509933186],[0.23799482806856537],[-1.3277230394522967],[-0.9120081843107354],[0.6442875326987686],[-2.136519886116907],[-1.2232177776608228],[1.0340622403680906],[-2.609596065945141],1712639356.6294558
142,[0.06742596072504094],[0.7570836410720767],[0.12544220192774855],[0.8237611586454795],[0.04248854338092465],[0.15943872221072522],[-0.17743537268909226],[-0.5578237509933186],[0.23799482806856537],[-1.3277230394522967],[-0.9120081843107354],[0.6442875326987686],[-2.136519886116907],[-1.2232177776608228],[1.0340622403680906],[-2.609596065945141],1712639356.645667
143,[0.06742596072504094],[0.7570836410720767],[0.12544220192774855],[0.8237611586454795],[0.04248854338092465],[0.15943872221072522],[-0.17743537268909226],[-0.5578237509933186],[0.23799482806856537],[-1.3277230394522967],[-0.9120081843107354],[0.6442875326987686],[-2.136519886116907],[-1.2232177776608228],[1.0340622403680906],[-2.609596065945141],1712639356.658852
144,[0.06742596072504094],[0.7570836410720767],[0.12544220192774855],[0.8237611586454795],[0.04248854338092465],[0.15943872221072522],[-0.17743537268909226],[-0.5578237509933186],[0.23799482806856537],[-1.3277230394522967],[-0.9120081843107354],[0.6442875326987686],[-2.136519886116907],[-1.2232177776608228],[1.0340622403680906],[-2.609596065945141],1712639356.678802
145,[0.06742596072504094],[0.7570836410720767],[0.12544220192774855],[0.8237611586454795],[0.04248854338092465],[0.15943872221072522],[-0.17743537268909226],[-0.5578237509933186],[0.23799482806856537],[-1.3277230394522967],[-0.9120081843107354],[0.6442875326987686],[-2.136519886116907],[-1.2232177776608228],[1.0340622403680906],[-2.609596065945141],1712639356.6910279
146,[0.06742596072504094],[0.7570836410720767],[0.12544220192774855],[0.8237611586454795],[0.04248854338092465],[0.15943872221072522],[-0.17743537268909226],[-0.5578237509933186],[0.23799482806856537],[-1.3277230394522967],[-0.9120081843107354],[0.6442875326987686],[-2.136519886116907],[-1.2232177776608228],[1.0340622403680906],[-2.609596065945141],1712639356.706035
147,[0.06742596072504094],[0.7570836410720767],[0.12544220192774855],[0.8237611586454795],[0.04248854338092465],[0.15943872221072522],[-0.17743537268909226],[-0.5578237509933186],[0.23799482806856537],[-1.3277230394522967],[-0.9120081843107354],[0.6442875326987686],[-2.136519886116907],[-1.2232177776608228],[1.0340622403680906],[-2.609596065945141],1712639356.7196429
148,[0.28880302988606577],[0.7579094646834482],[0.27783384400538164],[0.7632991944267196],[-0.5519185032387707],[0.5035634712589041],[-1.0746780629496147],[-1.1642715858133894],[0.9267176989440902],[-2.3236061774247334],[-1.107781560959083],[0.9873004068828667],[-2.4390877275165206],[-1.0425799611064805],[0.9047057298818264],[-2.513402942367875],1712639356.733807
149,[0.28880302988606577],[0.7579094646834482],[0.27783384400538164],[0.7632991944267196],[-0.5519185032387707],[0.5035634712589041],[-1.0746780629496147],[-1.1642715858133894],[0.9267176989440902],[-2.3236061774247334],[-1.107781560959083],[0.9873004068828667],[-2.4390877275165206],[-1.0425799611064805],[0.9047057298818264],[-2.513402942367875],1712639356.744598
150,[0.28880302988606577],[0.7579094646834482],[0.27783384400538164],[0.7632991944267196],[-0.5519185032387707],[0.5035634712589041],[-1.0746780629496147],[-1.1642715858133894],[0.9267176989440902],[-2.3236061774247334],[-1.107781560959083],[0.9873004068828667],[-2.4390877275165206],[-1.0425799611064805],[0.9047057298818264],[-2.513402942367875],1712639356.771455
151,[0.28880302988606577],[0.7579094646834482],[0.27783384400538164],[0.7632991944267196],[-0.5519185032387707],[0.5035634712589041],[-1.0746780629496147],[-1.1642715858133894],[0.9267176989440902],[-2.3236061774247334],[-1.107781560959083],[0.9873004068828667],[-2.4390877275165206],[-1.0425799611064805],[0.9047057298818264],[-2.513402942367875],1712639356.78387
152,[0.28880302988606577],[0.7579094646834482],[0.27783384400538164],[0.7632991944267196],[-0.5519185032387707],[0.5035634712589041],[-1.0746780629496147],[-1.1642715858133894],[0.9267176989440902],[-2.3236061774247334],[-1.107781560959083],[0.9873004068828667],[-2.4390877275165206],[-1.0425799611064805],[0.9047057298818264],[-2.513402942367875],1712639356.8009422
153,[0.15096987395503206],[0.81059276587608],[0.1619687631262603],[0.8742057744166228],[-0.8391668668400994],[0.5827803697304506],[-1.8052659176158738],[-1.005261753448461],[0.684400492069971],[-2.0281206054391343],[-0.7514736500944579],[0.4566734016508896],[-1.8163483610183235],[-0.6137294854124175],[0.3127079317924001],[-1.6114886019486994],1712639356.816571
154,[0.15096987395503206],[0.81059276587608],[0.1619687631262603],[0.8742057744166228],[-0.8391668668400994],[0.5827803697304506],[-1.8052659176158738],[-1.005261753448461],[0.684400492069971],[-2.0281206054391343],[-0.7514736500944579],[0.4566734016508896],[-1.8163483610183235],[-0.6137294854124175],[0.3127079317924001],[-1.6114886019486994],1712639356.830556
155,[0.15096987395503206],[0.81059276587608],[0.1619687631262603],[0.8742057744166228],[-0.8391668668400994],[0.5827803697304506],[-1.8052659176158738],[-1.005261753448461],[0.684400492069971],[-2.0281206054391343],[-0.7514736500944579],[0.4566734016508896],[-1.8163483610183235],[-0.6137294854124175],[0.3127079317924001],[-1.6114886019486994],1712639356.844971
156,[0.15096987395503206],[0.81059276587608],[0.1619687631262603],[0.8742057744166228],[-0.8391668668400994],[0.5827803697304506],[-1.8052659176158738],[-1.005261753448461],[0.684400492069971],[-2.0281206054391343],[-0.7514736500944579],[0.4566734016508896],[-1.8163483610183235],[-0.6137294854124175],[0.3127079317924001],[-1.6114886019486994],1712639356.863124
157,[0.15096987395503206],[0.81059276587608],[0.1619687631262603],[0.8742057744166228],[-0.8391668668400994],[0.5827803697304506],[-1.8052659176158738],[-1.005261753448461],[0.684400492069971],[-2.0281206054391343],[-0.7514736500944579],[0.4566734016508896],[-1.8163483610183235],[-0.6137294854124175],[0.3127079317924001],[-1.6114886019486994],1712639356.874342
158,[0.15096987395503206],[0.81059276587608],[0.1619687631262603],[0.8742057744166228],[-0.8391668668400994],[0.5827803697304506],[-1.8052659176158738],[-1.005261753448461],[0.684400492069971],[-2.0281206054391343],[-0.7514736500944579],[0.4566734016508896],[-1.8163483610183235],[-0.6137294854124175],[0.3127079317924001],[-1.6114886019486994],1712639356.892019
159,[-0.49293017447065723],[0.7181793134295903],[-0.47745857968044736],[0.6413885926537012],[-0.22552806035607992],[0.2668722491083754],[-0.5195105152111718],[-0.023846921384189045],[0.08486957976817208],[-0.345965940188577],[0.12711812928876148],[0.16246951076818889],[-0.1411236124735411],[0.09637334727905747],[-0.09031275557662857],[-0.20576198757725137],1712639356.90371
160,[-0.49293017447065723],[0.7181793134295903],[-0.47745857968044736],[0.6413885926537012],[-0.22552806035607992],[0.2668722491083754],[-0.5195105152111718],[-0.023846921384189045],[0.08486957976817208],[-0.345965940188577],[0.12711812928876148],[0.16246951076818889],[-0.1411236124735411],[0.09637334727905747],[-0.09031275557662857],[-0.20576198757725137],1712639356.9204211
161,[-0.49293017447065723],[0.7181793134295903],[-0.47745857968044736],[0.6413885926537012],[-0.22552806035607992],[0.2668722491083754],[-0.5195105152111718],[-0.023846921384189045],[0.08486957976817208],[-0.345965940188577],[0.12711812928876148],[0.16246951076818889],[-0.1411236124735411],[0.09637334727905747],[-0.09031275557662857],[-0.20576198757725137],1712639356.94596
162,[-0.49293017447065723],[0.7181793134295903],[-0.47745857968044736],[0.6413885926537012],[-0.22552806035607992],[0.2668722491083754],[-0.5195105152111718],[-0.023846921384189045],[0.08486957976817208],[-0.345965940188577],[0.12711812928876148],[0.16246951076818889],[-0.1411236124735411],[0.09637334727905747],[-0.09031275557662857],[-0.20576198757725137],1712639356.957896
163,[-0.49293017447065723],[0.7181793134295903],[-0.47745857968044736],[0.6413885926537012],[-0.22552806035607992],[0.2668722491083754],[-0.5195105152111718],[-0.023846921384189045],[0.08486957976817208],[-0.345965940188577],[0.12711812928876148],[0.16246951076818889],[-0.1411236124735411],[0.09637334727905747],[-0.09031275557662857],[-0.20576198757725137],1712639356.9694011
164,[-0.3907153549135706],[0.4286147832120301],[-0.380365579667056],[0.19090389531149465],[0.3373642788014911],[0.32208423540863096],[0.174433560800064],[0.5809651959248215],[0.21678153471861178],[0.38456377559900556],[0.5810220231642022],[0.20352477743139125],[0.4042872665349323],[0.46802371693124023],[-0.09853155166430087],[0.2645523606313207],1712639356.99202
165,[-0.3907153549135706],[0.4286147832120301],[-0.380365579667056],[0.19090389531149465],[0.3373642788014911],[0.32208423540863096],[0.174433560800064],[0.5809651959248215],[0.21678153471861178],[0.38456377559900556],[0.5810220231642022],[0.20352477743139125],[0.4042872665349323],[0.46802371693124023],[-0.09853155166430087],[0.2645523606313207],1712639357.004777
166,[-0.3907153549135706],[0.4286147832120301],[-0.380365579667056],[0.19090389531149465],[0.3373642788014911],[0.32208423540863096],[0.174433560800064],[0.5809651959248215],[0.21678153471861178],[0.38456377559900556],[0.5810220231642022],[0.20352477743139125],[0.4042872665349323],[0.46802371693124023],[-0.09853155166430087],[0.2645523606313207],1712639357.019211
167,[-0.3907153549135706],[0.4286147832120301],[-0.380365579667056],[0.19090389531149465],[0.3373642788014911],[0.32208423540863096],[0.174433560800064],[0.5809651959248215],[0.21678153471861178],[0.38456377559900556],[0.5810220231642022],[0.20352477743139125],[0.4042872665349323],[0.46802371693124023],[-0.09853155166430087],[0.2645523606313207],1712639357.039159
168,[-0.3907153549135706],[0.4286147832120301],[-0.380365579667056],[0.19090389531149465],[0.3373642788014911],[0.32208423540863096],[0.174433560800064],[0.5809651959248215],[0.21678153471861178],[0.38456377559900556],[0.5810220231642022],[0.20352477743139125],[0.4042872665349323],[0.46802371693124023],[-0.09853155166430087],[0.2645523606313207],1712639357.049477
169,[-0.3907153549135706],[0.4286147832120301],[-0.380365579667056],[0.19090389531149465],[0.3373642788014911],[0.32208423540863096],[0.174433560800064],[0.5809651959248215],[0.21678153471861178],[0.38456377559900556],[0.5810220231642022],[0.20352477743139125],[0.4042872665349323],[0.46802371693124023],[-0.09853155166430087],[0.2645523606313207],1712639357.0620642
170,[-0.3907153549135706],[0.4286147832120301],[-0.380365579667056],[0.19090389531149465],[0.3373642788014911],[0.32208423540863096],[0.174433560800064],[0.5809651959248215],[0.21678153471861178],[0.38456377559900556],[0.5810220231642022],[0.20352477743139125],[0.4042872665349323],[0.46802371693124023],[-0.09853155166430087],[0.2645523606313207],1712639357.0748641
171,[-0.3947988696864314],[0.46414022300705327],[-0.4217205404544478],[0.5120842489553126],[0.6853406997864163],[0.31021588972020697],[0.4667322179332422],[0.512122527718645],[0.08787827592653068],[0.2584196521404371],[0.25633603638861013],[0.10423459715982837],[-0.05011700727636814],[0.11912711857210516],[-0.17710838921800284],[-0.1851387540118287],1712639357.089879
172,[-0.3947988696864314],[0.46414022300705327],[-0.4217205404544478],[0.5120842489553126],[0.6853406997864163],[0.31021588972020697],[0.4667322179332422],[0.512122527718645],[0.08787827592653068],[0.2584196521404371],[0.25633603638861013],[0.10423459715982837],[-0.05011700727636814],[0.11912711857210516],[-0.17710838921800284],[-0.1851387540118287],1712639357.102874
173,[-0.3947988696864314],[0.46414022300705327],[-0.4217205404544478],[0.5120842489553126],[0.6853406997864163],[0.31021588972020697],[0.4667322179332422],[0.512122527718645],[0.08787827592653068],[0.2584196521404371],[0.25633603638861013],[0.10423459715982837],[-0.05011700727636814],[0.11912711857210516],[-0.17710838921800284],[-0.1851387540118287],1712639357.131551
174,[-0.3947988696864314],[0.46414022300705327],[-0.4217205404544478],[0.5120842489553126],[0.6853406997864163],[0.31021588972020697],[0.4667322179332422],[0.512122527718645],[0.08787827592653068],[0.2584196521404371],[0.25633603638861013],[0.10423459715982837],[-0.05011700727636814],[0.11912711857210516],[-0.17710838921800284],[-0.1851387540118287],1712639357.144607
175,[-0.3947988696864314],[0.46414022300705327],[-0.4217205404544478],[0.5120842489553126],[0.6853406997864163],[0.31021588972020697],[0.4667322179332422],[0.512122527718645],[0.08787827592653068],[0.2584196521404371],[0.25633603638861013],[0.10423459715982837],[-0.05011700727636814],[0.11912711857210516],[-0.17710838921800284],[-0.1851387540118287],1712639357.165569
176,[-0.18343796985416344],[0.7594740482628706],[-0.15658836374698784],[0.8468193243694323],[0.43732848379190964],[0.0930265562822493],[0.20875630353635918],[-0.20975647820582852],[0.11141481373361332],[-0.6700195523278049],[-0.397235259501223],[0.16755680409510224],[-0.9993071958788666],[-0.27346647629756665],[-0.00235724578247546],[-0.9135447872264288],1712639357.1924129
177,[-0.18343796985416344],[0.7594740482628706],[-0.15658836374698784],[0.8468193243694323],[0.43732848379190964],[0.0930265562822493],[0.20875630353635918],[-0.20975647820582852],[0.11141481373361332],[-0.6700195523278049],[-0.397235259501223],[0.16755680409510224],[-0.9993071958788666],[-0.27346647629756665],[-0.00235724578247546],[-0.9135447872264288],1712639357.205175
178,[-0.18343796985416344],[0.7594740482628706],[-0.15658836374698784],[0.8468193243694323],[0.43732848379190964],[0.0930265562822493],[0.20875630353635918],[-0.20975647820582852],[0.11141481373361332],[-0.6700195523278049],[-0.397235259501223],[0.16755680409510224],[-0.9993071958788666],[-0.27346647629756665],[-0.00235724578247546],[-0.9135447872264288],1712639357.2400582
179,[-0.18343796985416344],[0.7594740482628706],[-0.15658836374698784],[0.8468193243694323],[0.43732848379190964],[0.0930265562822493],[0.20875630353635918],[-0.20975647820582852],[0.11141481373361332],[-0.6700195523278049],[-0.397235259501223],[0.16755680409510224],[-0.9993071958788666],[-0.27346647629756665],[-0.00235724578247546],[-0.9135447872264288],1712639357.254403
180,[-0.18343796985416344],[0.7594740482628706],[-0.15658836374698784],[0.8468193243694323],[0.43732848379190964],[0.0930265562822493],[0.20875630353635918],[-0.20975647820582852],[0.11141481373361332],[-0.6700195523278049],[-0.397235259501223],[0.16755680409510224],[-0.9993071958788666],[-0.27346647629756665],[-0.00235724578247546],[-0.9135447872264288],1712639357.26632
181,[0.09325034542747053],[0.7747776048593262],[0.1204450117667893],[0.8044424064783097],[-0.3644499373799786],[0.27724568808083966],[-0.905058635494531],[-0.2895790371385301],[0.15461789409310636],[-0.8735160853290285],[-0.2558890068663537],[0.2482386947367849],[-0.8898289585283204],[-0.1091435260324081],[0.06452260836662027],[-0.8372470958364291],1712639357.295151
182,[0.09325034542747053],[0.7747776048593262],[0.1204450117667893],[0.8044424064783097],[-0.3644499373799786],[0.27724568808083966],[-0.905058635494531],[-0.2895790371385301],[0.15461789409310636],[-0.8735160853290285],[-0.2558890068663537],[0.2482386947367849],[-0.8898289585283204],[-0.1091435260324081],[0.06452260836662027],[-0.8372470958364291],1712639357.312237
183,[0.09325034542747053],[0.7747776048593262],[0.1204450117667893],[0.8044424064783097],[-0.3644499373799786],[0.27724568808083966],[-0.905058635494531],[-0.2895790371385301],[0.15461789409310636],[-0.8735160853290285],[-0.2558890068663537],[0.2482386947367849],[-0.8898289585283204],[-0.1091435260324081],[0.06452260836662027],[-0.8372470958364291],1712639357.3240051
184,[0.09325034542747053],[0.7747776048593262],[0.1204450117667893],[0.8044424064783097],[-0.3644499373799786],[0.27724568808083966],[-0.905058635494531],[-0.2895790371385301],[0.15461789409310636],[-0.8735160853290285],[-0.2558890068663537],[0.2482386947367849],[-0.8898289585283204],[-0.1091435260324081],[0.06452260836662027],[-0.8372470958364291],1712639357.336593
185,[0.09325034542747053],[0.7747776048593262],[0.1204450117667893],[0.8044424064783097],[-0.3644499373799786],[0.27724568808083966],[-0.905058635494531],[-0.2895790371385301],[0.15461789409310636],[-0.8735160853290285],[-0.2558890068663537],[0.2482386947367849],[-0.8898289585283204],[-0.1091435260324081],[0.06452260836662027],[-0.8372470958364291],1712639357.348083
186,[0.09325034542747053],[0.7747776048593262],[0.1204450117667893],[0.8044424064783097],[-0.3644499373799786],[0.27724568808083966],[-0.905058635494531],[-0.2895790371385301],[0.15461789409310636],[-0.8735160853290285],[-0.2558890068663537],[0.2482386947367849],[-0.8898289585283204],[-0.1091435260324081],[0.06452260836662027],[-0.8372470958364291],1712639357.360055
187,[0.09325034542747053],[0.7747776048593262],[0.1204450117667893],[0.8044424064783097],[-0.3644499373799786],[0.27724568808083966],[-0.905058635494531],[-0.2895790371385301],[0.15461789409310636],[-0.8735160853290285],[-0.2558890068663537],[0.2482386947367849],[-0.8898289585283204],[-0.1091435260324081],[0.06452260836662027],[-0.8372470958364291],1712639357.373332
188,[-0.18123258799622535],[0.7575598362352828],[-0.17354441338466653],[0.5685940544801992],[-0.1933928424460854],[0.2332840860549321],[-1.1396429078364696],[0.14446113895683327],[0.13195521402567845],[-0.48101562734979647],[0.024167232911440753],[0.25350538502794817],[-0.730667034266796],[-0.08990244125150959],[-0.05661264417287646],[-0.8912562663328386],1712639357.3868039
189,[-0.18123258799622535],[0.7575598362352828],[-0.17354441338466653],[0.5685940544801992],[-0.1933928424460854],[0.2332840860549321],[-1.1396429078364696],[0.14446113895683327],[0.13195521402567845],[-0.48101562734979647],[0.024167232911440753],[0.25350538502794817],[-0.730667034266796],[-0.08990244125150959],[-0.05661264417287646],[-0.8912562663328386],1712639357.40155
190,[-0.18123258799622535],[0.7575598362352828],[-0.17354441338466653],[0.5685940544801992],[-0.1933928424460854],[0.2332840860549321],[-1.1396429078364696],[0.14446113895683327],[0.13195521402567845],[-0.48101562734979647],[0.024167232911440753],[0.25350538502794817],[-0.730667034266796],[-0.08990244125150959],[-0.05661264417287646],[-0.8912562663328386],1712639357.413087
191,[-0.18123258799622535],[0.7575598362352828],[-0.17354441338466653],[0.5685940544801992],[-0.1933928424460854],[0.2332840860549321],[-1.1396429078364696],[0.14446113895683327],[0.13195521402567845],[-0.48101562734979647],[0.024167232911440753],[0.25350538502794817],[-0.730667034266796],[-0.08990244125150959],[-0.05661264417287646],[-0.8912562663328386],1712639357.4335501
192,[-0.18123258799622535],[0.7575598362352828],[-0.17354441338466653],[0.5685940544801992],[-0.1933928424460854],[0.2332840860549321],[-1.1396429078364696],[0.14446113895683327],[0.13195521402567845],[-0.48101562734979647],[0.024167232911440753],[0.25350538502794817],[-0.730667034266796],[-0.08990244125150959],[-0.05661264417287646],[-0.8912562663328386],1712639357.444478
193,[-0.18123258799622535],[0.7575598362352828],[-0.17354441338466653],[0.5685940544801992],[-0.1933928424460854],[0.2332840860549321],[-1.1396429078364696],[0.14446113895683327],[0.13195521402567845],[-0.48101562734979647],[0.024167232911440753],[0.25350538502794817],[-0.730667034266796],[-0.08990244125150959],[-0.05661264417287646],[-0.8912562663328386],1712639357.454866
194,[-0.18123258799622535],[0.7575598362352828],[-0.17354441338466653],[0.5685940544801992],[-0.1933928424460854],[0.2332840860549321],[-1.1396429078364696],[0.14446113895683327],[0.13195521402567845],[-0.48101562734979647],[0.024167232911440753],[0.25350538502794817],[-0.730667034266796],[-0.08990244125150959],[-0.05661264417287646],[-0.8912562663328386],1712639357.46928
195,[-0.20240876911967937],[0.7449764333743241],[-0.27195191922239964],[0.311317097056011],[0.2650419867629202],[0.14761260575950116],[-0.6730907536990013],[0.3911246870140326],[0.005895659989929538],[-0.34828133116567855],[-0.0014566281189416978],[0.20351936753785135],[-0.9863893908728835],[-0.3479833606965988],[0.05514701383285328],[-1.5007417599520556],1712639357.4846961
196,[-0.20240876911967937],[0.7449764333743241],[-0.27195191922239964],[0.311317097056011],[0.2650419867629202],[0.14761260575950116],[-0.6730907536990013],[0.3911246870140326],[0.005895659989929538],[-0.34828133116567855],[-0.0014566281189416978],[0.20351936753785135],[-0.9863893908728835],[-0.3479833606965988],[0.05514701383285328],[-1.5007417599520556],1712639357.496119
197,[-0.20240876911967937],[0.7449764333743241],[-0.27195191922239964],[0.311317097056011],[0.2650419867629202],[0.14761260575950116],[-0.6730907536990013],[0.3911246870140326],[0.005895659989929538],[-0.34828133116567855],[-0.0014566281189416978],[0.20351936753785135],[-0.9863893908728835],[-0.3479833606965988],[0.05514701383285328],[-1.5007417599520556],1712639357.508659
198,[-0.20240876911967937],[0.7449764333743241],[-0.27195191922239964],[0.311317097056011],[0.2650419867629202],[0.14761260575950116],[-0.6730907536990013],[0.3911246870140326],[0.005895659989929538],[-0.34828133116567855],[-0.0014566281189416978],[0.20351936753785135],[-0.9863893908728835],[-0.3479833606965988],[0.05514701383285328],[-1.5007417599520556],1712639357.523068
199,[-0.20240876911967937],[0.7449764333743241],[-0.27195191922239964],[0.311317097056011],[0.2650419867629202],[0.14761260575950116],[-0.6730907536990013],[0.3911246870140326],[0.005895659989929538],[-0.34828133116567855],[-0.0014566281189416978],[0.20351936753785135],[-0.9863893908728835],[-0.3479833606965988],[0.05514701383285328],[-1.5007417599520556],1712639357.535351
200,[-0.20240876911967937],[0.7449764333743241],[-0.27195191922239964],[0.311317097056011],[0.2650419867629202],[0.14761260575950116],[-0.6730907536990013],[0.3911246870140326],[0.005895659989929538],[-0.34828133116567855],[-0.0014566281189416978],[0.20351936753785135],[-0.9863893908728835],[-0.3479833606965988],[0.05514701383285328],[-1.5007417599520556],1712639357.54775
201,[-0.20240876911967937],[0.7449764333743241],[-0.27195191922239964],[0.311317097056011],[0.2650419867629202],[0.14761260575950116],[-0.6730907536990013],[0.3911246870140326],[0.005895659989929538],[-0.34828133116567855],[-0.0014566281189416978],[0.20351936753785135],[-0.9863893908728835],[-0.3479833606965988],[0.05514701383285328],[-1.5007417599520556],1712639357.5587342
202,[-0.15438702976694027],[0.7728773948553903],[-0.23981162628849173],[0.2284258154370324],[0.32167324826331367],[0.05753055297276357],[-0.4725925951024113],[0.136049239147367],[0.023849577288152658],[-0.7288789176956905],[-0.2957114608082074],[0.1800261546243085],[-1.5760292484789997],[-0.7072295105069212],[0.3921074791832341],[-2.042639287374009],1712639357.5728462
203,[-0.15438702976694027],[0.7728773948553903],[-0.23981162628849173],[0.2284258154370324],[0.32167324826331367],[0.05753055297276357],[-0.4725925951024113],[0.136049239147367],[0.023849577288152658],[-0.7288789176956905],[-0.2957114608082074],[0.1800261546243085],[-1.5760292484789997],[-0.7072295105069212],[0.3921074791832341],[-2.042639287374009],1712639357.589445
204,[-0.15438702976694027],[0.7728773948553903],[-0.23981162628849173],[0.2284258154370324],[0.32167324826331367],[0.05753055297276357],[-0.4725925951024113],[0.136049239147367],[0.023849577288152658],[-0.7288789176956905],[-0.2957114608082074],[0.1800261546243085],[-1.5760292484789997],[-0.7072295105069212],[0.3921074791832341],[-2.042639287374009],1712639357.603168
205,[-0.15438702976694027],[0.7728773948553903],[-0.23981162628849173],[0.2284258154370324],[0.32167324826331367],[0.05753055297276357],[-0.4725925951024113],[0.136049239147367],[0.023849577288152658],[-0.7288789176956905],[-0.2957114608082074],[0.1800261546243085],[-1.5760292484789997],[-0.7072295105069212],[0.3921074791832341],[-2.042639287374009],1712639357.617016
206,[-0.15438702976694027],[0.7728773948553903],[-0.23981162628849173],[0.2284258154370324],[0.32167324826331367],[0.05753055297276357],[-0.4725925951024113],[0.136049239147367],[0.023849577288152658],[-0.7288789176956905],[-0.2957114608082074],[0.1800261546243085],[-1.5760292484789997],[-0.7072295105069212],[0.3921074791832341],[-2.042639287374009],1712639357.62868
207,[-0.15438702976694027],[0.7728773948553903],[-0.23981162628849173],[0.2284258154370324],[0.32167324826331367],[0.05753055297276357],[-0.4725925951024113],[0.136049239147367],[0.023849577288152658],[-0.7288789176956905],[-0.2957114608082074],[0.1800261546243085],[-1.5760292484789997],[-0.7072295105069212],[0.3921074791832341],[-2.042639287374009],1712639357.63888
208,[-0.15438702976694027],[0.7728773948553903],[-0.23981162628849173],[0.2284258154370324],[0.32167324826331367],[0.05753055297276357],[-0.4725925951024113],[0.136049239147367],[0.023849577288152658],[-0.7288789176956905],[-0.2957114608082074],[0.1800261546243085],[-1.5760292484789997],[-0.7072295105069212],[0.3921074791832341],[-2.042639287374009],1712639357.65838
209,[-0.03628173794829703],[0.7666010278365885],[-0.12919463512205476],[0.23131793680397872],[0.009507699529562352],[-0.10909549203584136],[-0.8094425537103684],[-0.29486857605048206],[0.0967851528651328],[-1.420127249968887],[-0.6684045577421945],[0.3047937777790124],[-2.060309976138749],[-1.045337799436904],[0.5695925383505409],[-2.4163434096341967],1712639357.678699
210,[-0.03628173794829703],[0.7666010278365885],[-0.12919463512205476],[0.23131793680397872],[0.009507699529562352],[-0.10909549203584136],[-0.8094425537103684],[-0.29486857605048206],[0.0967851528651328],[-1.420127249968887],[-0.6684045577421945],[0.3047937777790124],[-2.060309976138749],[-1.045337799436904],[0.5695925383505409],[-2.4163434096341967],1712639357.691415
211,[-0.03628173794829703],[0.7666010278365885],[-0.12919463512205476],[0.23131793680397872],[0.009507699529562352],[-0.10909549203584136],[-0.8094425537103684],[-0.29486857605048206],[0.0967851528651328],[-1.420127249968887],[-0.6684045577421945],[0.3047937777790124],[-2.060309976138749],[-1.045337799436904],[0.5695925383505409],[-2.4163434096341967],1712639357.705251
212,[-0.03628173794829703],[0.7666010278365885],[-0.12919463512205476],[0.23131793680397872],[0.009507699529562352],[-0.10909549203584136],[-0.8094425537103684],[-0.29486857605048206],[0.0967851528651328],[-1.420127249968887],[-0.6684045577421945],[0.3047937777790124],[-2.060309976138749],[-1.045337799436904],[0.5695925383505409],[-2.4163434096341967],1712639357.719519
213,[-0.03628173794829703],[0.7666010278365885],[-0.12919463512205476],[0.23131793680397872],[0.009507699529562352],[-0.10909549203584136],[-0.8094425537103684],[-0.29486857605048206],[0.0967851528651328],[-1.420127249968887],[-0.6684045577421945],[0.3047937777790124],[-2.060309976138749],[-1.045337799436904],[0.5695925383505409],[-2.4163434096341967],1712639357.731702
214,[-0.03628173794829703],[0.7666010278365885],[-0.12919463512205476],[0.23131793680397872],[0.009507699529562352],[-0.10909549203584136],[-0.8094425537103684],[-0.29486857605048206],[0.0967851528651328],[-1.420127249968887],[-0.6684045577421945],[0.3047937777790124],[-2.060309976138749],[-1.045337799436904],[0.5695925383505409],[-2.4163434096341967],1712639357.744259
215,[-0.03628173794829703],[0.7666010278365885],[-0.12919463512205476],[0.23131793680397872],[0.009507699529562352],[-0.10909549203584136],[-0.8094425537103684],[-0.29486857605048206],[0.0967851528651328],[-1.420127249968887],[-0.6684045577421945],[0.3047937777790124],[-2.060309976138749],[-1.045337799436904],[0.5695925383505409],[-2.4163434096341967],1712639357.7555351
216,[0.010391332291075915],[0.7494905622150185],[-0.041201316785940856],[0.3650598226066043],[-0.16820145814482262],[0.06798529851398798],[-1.1525627403890846],[-0.5889856906868224],[0.17982699157412294],[-1.8956089562925251],[-0.7955774256242826],[0.35301937064440925],[-2.1981117928863227],[-1.1068616602347887],[0.5168028275789985],[-2.4560299944909683],1712639357.7705421
217,[0.010391332291075915],[0.7494905622150185],[-0.041201316785940856],[0.3650598226066043],[-0.16820145814482262],[0.06798529851398798],[-1.1525627403890846],[-0.5889856906868224],[0.17982699157412294],[-1.8956089562925251],[-0.7955774256242826],[0.35301937064440925],[-2.1981117928863227],[-1.1068616602347887],[0.5168028275789985],[-2.4560299944909683],1712639357.781269
218,[0.010391332291075915],[0.7494905622150185],[-0.041201316785940856],[0.3650598226066043],[-0.16820145814482262],[0.06798529851398798],[-1.1525627403890846],[-0.5889856906868224],[0.17982699157412294],[-1.8956089562925251],[-0.7955774256242826],[0.35301937064440925],[-2.1981117928863227],[-1.1068616602347887],[0.5168028275789985],[-2.4560299944909683],1712639357.8109498
219,[0.010391332291075915],[0.7494905622150185],[-0.041201316785940856],[0.3650598226066043],[-0.16820145814482262],[0.06798529851398798],[-1.1525627403890846],[-0.5889856906868224],[0.17982699157412294],[-1.8956089562925251],[-0.7955774256242826],[0.35301937064440925],[-2.1981117928863227],[-1.1068616602347887],[0.5168028275789985],[-2.4560299944909683],1712639357.824704
220,[0.010391332291075915],[0.7494905622150185],[-0.041201316785940856],[0.3650598226066043],[-0.16820145814482262],[0.06798529851398798],[-1.1525627403890846],[-0.5889856906868224],[0.17982699157412294],[-1.8956089562925251],[-0.7955774256242826],[0.35301937064440925],[-2.1981117928863227],[-1.1068616602347887],[0.5168028275789985],[-2.4560299944909683],1712639357.840698
221,[-0.03101942527617858],[0.6454844305007095],[-0.02604716987710543],[0.5365600196212648],[-0.3084358383314716],[0.2766700024191714],[-1.2311434431356374],[-0.4684003411069448],[0.07652401138932631],[-1.4293765352771515],[-0.4338511717276687],[0.14502437035820878],[-1.4114277439104448],[-0.49571009913055997],[0.07522372726109464],[-1.4299522317345164],1712639357.853121
222,[-0.03101942527617858],[0.6454844305007095],[-0.02604716987710543],[0.5365600196212648],[-0.3084358383314716],[0.2766700024191714],[-1.2311434431356374],[-0.4684003411069448],[0.07652401138932631],[-1.4293765352771515],[-0.4338511717276687],[0.14502437035820878],[-1.4114277439104448],[-0.49571009913055997],[0.07522372726109464],[-1.4299522317345164],1712639357.8658612
223,[-0.03101942527617858],[0.6454844305007095],[-0.02604716987710543],[0.5365600196212648],[-0.3084358383314716],[0.2766700024191714],[-1.2311434431356374],[-0.4684003411069448],[0.07652401138932631],[-1.4293765352771515],[-0.4338511717276687],[0.14502437035820878],[-1.4114277439104448],[-0.49571009913055997],[0.07522372726109464],[-1.4299522317345164],1712639357.87696
224,[-0.03101942527617858],[0.6454844305007095],[-0.02604716987710543],[0.5365600196212648],[-0.3084358383314716],[0.2766700024191714],[-1.2311434431356374],[-0.4684003411069448],[0.07652401138932631],[-1.4293765352771515],[-0.4338511717276687],[0.14502437035820878],[-1.4114277439104448],[-0.49571009913055997],[0.07522372726109464],[-1.4299522317345164],1712639357.888663
225,[-0.03101942527617858],[0.6454844305007095],[-0.02604716987710543],[0.5365600196212648],[-0.3084358383314716],[0.2766700024191714],[-1.2311434431356374],[-0.4684003411069448],[0.07652401138932631],[-1.4293765352771515],[-0.4338511717276687],[0.14502437035820878],[-1.4114277439104448],[-0.49571009913055997],[0.07522372726109464],[-1.4299522317345164],1712639357.903031
226,[-0.03101942527617858],[0.6454844305007095],[-0.02604716987710543],[0.5365600196212648],[-0.3084358383314716],[0.2766700024191714],[-1.2311434431356374],[-0.4684003411069448],[0.07652401138932631],[-1.4293765352771515],[-0.4338511717276687],[0.14502437035820878],[-1.4114277439104448],[-0.49571009913055997],[0.07522372726109464],[-1.4299522317345164],1712639357.916009
227,[-0.03101942527617858],[0.6454844305007095],[-0.02604716987710543],[0.5365600196212648],[-0.3084358383314716],[0.2766700024191714],[-1.2311434431356374],[-0.4684003411069448],[0.07652401138932631],[-1.4293765352771515],[-0.4338511717276687],[0.14502437035820878],[-1.4114277439104448],[-0.49571009913055997],[0.07522372726109464],[-1.4299522317345164],1712639357.9261792
228,[-0.03101942527617858],[0.6454844305007095],[-0.02604716987710543],[0.5365600196212648],[-0.3084358383314716],[0.2766700024191714],[-1.2311434431356374],[-0.4684003411069448],[0.07652401138932631],[-1.4293765352771515],[-0.4338511717276687],[0.14502437035820878],[-1.4114277439104448],[-0.49571009913055997],[0.07522372726109464],[-1.4299522317345164],1712639357.9448671
229,[-0.17510264293217673],[0.6280256565175174],[-0.16388524302306967],[0.5318598687589027],[-0.2619019111090332],[0.25694764603809805],[-0.7082846392463165],[0.08830361388778257],[0.041711310470204745],[-0.21444111035291455],[0.19443371205987695],[0.15059113060112903],[-0.07106307661756742],[0.17134333221382708],[-0.09346686074294352],[-0.11716472417419566],1712639357.963763
230,[-0.17510264293217673],[0.6280256565175174],[-0.16388524302306967],[0.5318598687589027],[-0.2619019111090332],[0.25694764603809805],[-0.7082846392463165],[0.08830361388778257],[0.041711310470204745],[-0.21444111035291455],[0.19443371205987695],[0.15059113060112903],[-0.07106307661756742],[0.17134333221382708],[-0.09346686074294352],[-0.11716472417419566],1712639357.977685
231,[-0.17510264293217673],[0.6280256565175174],[-0.16388524302306967],[0.5318598687589027],[-0.2619019111090332],[0.25694764603809805],[-0.7082846392463165],[0.08830361388778257],[0.041711310470204745],[-0.21444111035291455],[0.19443371205987695],[0.15059113060112903],[-0.07106307661756742],[0.17134333221382708],[-0.09346686074294352],[-0.11716472417419566],1712639357.995863
232,[-0.17510264293217673],[0.6280256565175174],[-0.16388524302306967],[0.5318598687589027],[-0.2619019111090332],[0.25694764603809805],[-0.7082846392463165],[0.08830361388778257],[0.041711310470204745],[-0.21444111035291455],[0.19443371205987695],[0.15059113060112903],[-0.07106307661756742],[0.17134333221382708],[-0.09346686074294352],[-0.11716472417419566],1712639358.0078561
233,[-0.17510264293217673],[0.6280256565175174],[-0.16388524302306967],[0.5318598687589027],[-0.2619019111090332],[0.25694764603809805],[-0.7082846392463165],[0.08830361388778257],[0.041711310470204745],[-0.21444111035291455],[0.19443371205987695],[0.15059113060112903],[-0.07106307661756742],[0.17134333221382708],[-0.09346686074294352],[-0.11716472417419566],1712639358.020503
234,[-0.17510264293217673],[0.6280256565175174],[-0.16388524302306967],[0.5318598687589027],[-0.2619019111090332],[0.25694764603809805],[-0.7082846392463165],[0.08830361388778257],[0.041711310470204745],[-0.21444111035291455],[0.19443371205987695],[0.15059113060112903],[-0.07106307661756742],[0.17134333221382708],[-0.09346686074294352],[-0.11716472417419566],1712639358.0330439
235,[-0.17510264293217673],[0.6280256565175174],[-0.16388524302306967],[0.5318598687589027],[-0.2619019111090332],[0.25694764603809805],[-0.7082846392463165],[0.08830361388778257],[0.041711310470204745],[-0.21444111035291455],[0.19443371205987695],[0.15059113060112903],[-0.07106307661756742],[0.17134333221382708],[-0.09346686074294352],[-0.11716472417419566],1712639358.048796
236,[-0.2887639101065729],[0.764006293562905],[-0.28910623728286255],[0.6523894574268908],[-0.14036349127548503],[0.3250896451470175],[-0.47303092428434973],[0.14579372323157314],[0.11635472530962009],[-0.11962593075135446],[0.31830453102240364],[0.10047781426875692],[0.1206384573868113],[0.3170548103258384],[-0.145861235128172],[0.12577995551710777],1712639358.067096
237,[-0.2887639101065729],[0.764006293562905],[-0.28910623728286255],[0.6523894574268908],[-0.14036349127548503],[0.3250896451470175],[-0.47303092428434973],[0.14579372323157314],[0.11635472530962009],[-0.11962593075135446],[0.31830453102240364],[0.10047781426875692],[0.1206384573868113],[0.3170548103258384],[-0.145861235128172],[0.12577995551710777],1712639358.079644
238,[-0.2887639101065729],[0.764006293562905],[-0.28910623728286255],[0.6523894574268908],[-0.14036349127548503],[0.3250896451470175],[-0.47303092428434973],[0.14579372323157314],[0.11635472530962009],[-0.11962593075135446],[0.31830453102240364],[0.10047781426875692],[0.1206384573868113],[0.3170548103258384],[-0.145861235128172],[0.12577995551710777],1712639358.092913
239,[-0.2887639101065729],[0.764006293562905],[-0.28910623728286255],[0.6523894574268908],[-0.14036349127548503],[0.3250896451470175],[-0.47303092428434973],[0.14579372323157314],[0.11635472530962009],[-0.11962593075135446],[0.31830453102240364],[0.10047781426875692],[0.1206384573868113],[0.3170548103258384],[-0.145861235128172],[0.12577995551710777],1712639358.1088371
240,[-0.2887639101065729],[0.764006293562905],[-0.28910623728286255],[0.6523894574268908],[-0.14036349127548503],[0.3250896451470175],[-0.47303092428434973],[0.14579372323157314],[0.11635472530962009],[-0.11962593075135446],[0.31830453102240364],[0.10047781426875692],[0.1206384573868113],[0.3170548103258384],[-0.145861235128172],[0.12577995551710777],1712639358.12006
241,[-0.2887639101065729],[0.764006293562905],[-0.28910623728286255],[0.6523894574268908],[-0.14036349127548503],[0.3250896451470175],[-0.47303092428434973],[0.14579372323157314],[0.11635472530962009],[-0.11962593075135446],[0.31830453102240364],[0.10047781426875692],[0.1206384573868113],[0.3170548103258384],[-0.145861235128172],[0.12577995551710777],1712639358.1321971
242,[-0.2887639101065729],[0.764006293562905],[-0.28910623728286255],[0.6523894574268908],[-0.14036349127548503],[0.3250896451470175],[-0.47303092428434973],[0.14579372323157314],[0.11635472530962009],[-0.11962593075135446],[0.31830453102240364],[0.10047781426875692],[0.1206384573868113],[0.3170548103258384],[-0.145861235128172],[0.12577995551710777],1712639358.154229
243,[-0.4536672804144708],[1.0580306666478696],[-0.37394522550331144],[0.7372663842725736],[-0.33685398717241516],[0.6301881806479933],[-0.7232916929998394],[-0.1544683724132053],[0.42211319335983344],[-0.39503594212952403],[-0.014529571854063925],[0.3837837512508688],[-0.31110789509891],[0.1068268624404987],[0.20400001535928852],[-0.21298065350034195],1712639358.166958
244,[-0.4536672804144708],[1.0580306666478696],[-0.37394522550331144],[0.7372663842725736],[-0.33685398717241516],[0.6301881806479933],[-0.7232916929998394],[-0.1544683724132053],[0.42211319335983344],[-0.39503594212952403],[-0.014529571854063925],[0.3837837512508688],[-0.31110789509891],[0.1068268624404987],[0.20400001535928852],[-0.21298065350034195],1712639358.197044
245,[-0.4536672804144708],[1.0580306666478696],[-0.37394522550331144],[0.7372663842725736],[-0.33685398717241516],[0.6301881806479933],[-0.7232916929998394],[-0.1544683724132053],[0.42211319335983344],[-0.39503594212952403],[-0.014529571854063925],[0.3837837512508688],[-0.31110789509891],[0.1068268624404987],[0.20400001535928852],[-0.21298065350034195],1712639358.208456
246,[-0.4536672804144708],[1.0580306666478696],[-0.37394522550331144],[0.7372663842725736],[-0.33685398717241516],[0.6301881806479933],[-0.7232916929998394],[-0.1544683724132053],[0.42211319335983344],[-0.39503594212952403],[-0.014529571854063925],[0.3837837512508688],[-0.31110789509891],[0.1068268624404987],[0.20400001535928852],[-0.21298065350034195],1712639358.222924
247,[-0.4536672804144708],[1.0580306666478696],[-0.37394522550331144],[0.7372663842725736],[-0.33685398717241516],[0.6301881806479933],[-0.7232916929998394],[-0.1544683724132053],[0.42211319335983344],[-0.39503594212952403],[-0.014529571854063925],[0.3837837512508688],[-0.31110789509891],[0.1068268624404987],[0.20400001535928852],[-0.21298065350034195],1712639358.23698
248,[-0.4536672804144708],[1.0580306666478696],[-0.37394522550331144],[0.7372663842725736],[-0.33685398717241516],[0.6301881806479933],[-0.7232916929998394],[-0.1544683724132053],[0.42211319335983344],[-0.39503594212952403],[-0.014529571854063925],[0.3837837512508688],[-0.31110789509891],[0.1068268624404987],[0.20400001535928852],[-0.21298065350034195],1712639358.25038
249,[-0.4536672804144708],[1.0580306666478696],[-0.37394522550331144],[0.7372663842725736],[-0.33685398717241516],[0.6301881806479933],[-0.7232916929998394],[-0.1544683724132053],[0.42211319335983344],[-0.39503594212952403],[-0.014529571854063925],[0.3837837512508688],[-0.31110789509891],[0.1068268624404987],[0.20400001535928852],[-0.21298065350034195],1712639358.262918
250,[-0.4536672804144708],[1.0580306666478696],[-0.37394522550331144],[0.7372663842725736],[-0.33685398717241516],[0.6301881806479933],[-0.7232916929998394],[-0.1544683724132053],[0.42211319335983344],[-0.39503594212952403],[-0.014529571854063925],[0.3837837512508688],[-0.31110789509891],[0.1068268624404987],[0.20400001535928852],[-0.21298065350034195],1712639358.277944
251,[-0.7319896610491538],[1.3294923758593906],[-0.6958348945852231],[1.2195226595698514],[-0.4044928830038183],[0.9063878110499233],[-0.8459999171168544],[-0.35766566822357],[0.7953130733285527],[-0.9097759759158794],[-0.404484735263795],[0.6756040134793178],[-0.977336891181207],[-0.6541731675042616],[0.7304951638850893],[-1.3699554234840148],1712639358.29097
252,[-0.7319896610491538],[1.3294923758593906],[-0.6958348945852231],[1.2195226595698514],[-0.4044928830038183],[0.9063878110499233],[-0.8459999171168544],[-0.35766566822357],[0.7953130733285527],[-0.9097759759158794],[-0.404484735263795],[0.6756040134793178],[-0.977336891181207],[-0.6541731675042616],[0.7304951638850893],[-1.3699554234840148],1712639358.308037
253,[-0.7319896610491538],[1.3294923758593906],[-0.6958348945852231],[1.2195226595698514],[-0.4044928830038183],[0.9063878110499233],[-0.8459999171168544],[-0.35766566822357],[0.7953130733285527],[-0.9097759759158794],[-0.404484735263795],[0.6756040134793178],[-0.977336891181207],[-0.6541731675042616],[0.7304951638850893],[-1.3699554234840148],1712639358.319623
254,[-0.7319896610491538],[1.3294923758593906],[-0.6958348945852231],[1.2195226595698514],[-0.4044928830038183],[0.9063878110499233],[-0.8459999171168544],[-0.35766566822357],[0.7953130733285527],[-0.9097759759158794],[-0.404484735263795],[0.6756040134793178],[-0.977336891181207],[-0.6541731675042616],[0.7304951638850893],[-1.3699554234840148],1712639358.332442
255,[-0.7319896610491538],[1.3294923758593906],[-0.6958348945852231],[1.2195226595698514],[-0.4044928830038183],[0.9063878110499233],[-0.8459999171168544],[-0.35766566822357],[0.7953130733285527],[-0.9097759759158794],[-0.404484735263795],[0.6756040134793178],[-0.977336891181207],[-0.6541731675042616],[0.7304951638850893],[-1.3699554234840148],1712639358.345064
256,[-0.7319896610491538],[1.3294923758593906],[-0.6958348945852231],[1.2195226595698514],[-0.4044928830038183],[0.9063878110499233],[-0.8459999171168544],[-0.35766566822357],[0.7953130733285527],[-0.9097759759158794],[-0.404484735263795],[0.6756040134793178],[-0.977336891181207],[-0.6541731675042616],[0.7304951638850893],[-1.3699554234840148],1712639358.3569632
257,[-0.7319896610491538],[1.3294923758593906],[-0.6958348945852231],[1.2195226595698514],[-0.4044928830038183],[0.9063878110499233],[-0.8459999171168544],[-0.35766566822357],[0.7953130733285527],[-0.9097759759158794],[-0.404484735263795],[0.6756040134793178],[-0.977336891181207],[-0.6541731675042616],[0.7304951638850893],[-1.3699554234840148],1712639358.368172
258,[-0.7319896610491538],[1.3294923758593906],[-0.6958348945852231],[1.2195226595698514],[-0.4044928830038183],[0.9063878110499233],[-0.8459999171168544],[-0.35766566822357],[0.7953130733285527],[-0.9097759759158794],[-0.404484735263795],[0.6756040134793178],[-0.977336891181207],[-0.6541731675042616],[0.7304951638850893],[-1.3699554234840148],1712639358.4008892
259,[-0.7319896610491538],[1.3294923758593906],[-0.6958348945852231],[1.2195226595698514],[-0.4044928830038183],[0.9063878110499233],[-0.8459999171168544],[-0.35766566822357],[0.7953130733285527],[-0.9097759759158794],[-0.404484735263795],[0.6756040134793178],[-0.977336891181207],[-0.6541731675042616],[0.7304951638850893],[-1.3699554234840148],1712639358.433202
260,[-0.7319896610491538],[1.3294923758593906],[-0.6958348945852231],[1.2195226595698514],[-0.4044928830038183],[0.9063878110499233],[-0.8459999171168544],[-0.35766566822357],[0.7953130733285527],[-0.9097759759158794],[-0.404484735263795],[0.6756040134793178],[-0.977336891181207],[-0.6541731675042616],[0.7304951638850893],[-1.3699554234840148],1712639358.444559
261,[-0.7319896610491538],[1.3294923758593906],[-0.6958348945852231],[1.2195226595698514],[-0.4044928830038183],[0.9063878110499233],[-0.8459999171168544],[-0.35766566822357],[0.7953130733285527],[-0.9097759759158794],[-0.404484735263795],[0.6756040134793178],[-0.977336891181207],[-0.6541731675042616],[0.7304951638850893],[-1.3699554234840148],1712639358.456395
262,[-0.7319896610491538],[1.3294923758593906],[-0.6958348945852231],[1.2195226595698514],[-0.4044928830038183],[0.9063878110499233],[-0.8459999171168544],[-0.35766566822357],[0.7953130733285527],[-0.9097759759158794],[-0.404484735263795],[0.6756040134793178],[-0.977336891181207],[-0.6541731675042616],[0.7304951638850893],[-1.3699554234840148],1712639358.4694898
263,[-0.7319896610491538],[1.3294923758593906],[-0.6958348945852231],[1.2195226595698514],[-0.4044928830038183],[0.9063878110499233],[-0.8459999171168544],[-0.35766566822357],[0.7953130733285527],[-0.9097759759158794],[-0.404484735263795],[0.6756040134793178],[-0.977336891181207],[-0.6541731675042616],[0.7304951638850893],[-1.3699554234840148],1712639358.486767
264,[-0.7319896610491538],[1.3294923758593906],[-0.6958348945852231],[1.2195226595698514],[-0.4044928830038183],[0.9063878110499233],[-0.8459999171168544],[-0.35766566822357],[0.7953130733285527],[-0.9097759759158794],[-0.404484735263795],[0.6756040134793178],[-0.977336891181207],[-0.6541731675042616],[0.7304951638850893],[-1.3699554234840148],1712639358.499315
265,[-0.7319896610491538],[1.3294923758593906],[-0.6958348945852231],[1.2195226595698514],[-0.4044928830038183],[0.9063878110499233],[-0.8459999171168544],[-0.35766566822357],[0.7953130733285527],[-0.9097759759158794],[-0.404484735263795],[0.6756040134793178],[-0.977336891181207],[-0.6541731675042616],[0.7304951638850893],[-1.3699554234840148],1712639358.512156
266,[-0.7319896610491538],[1.3294923758593906],[-0.6958348945852231],[1.2195226595698514],[-0.4044928830038183],[0.9063878110499233],[-0.8459999171168544],[-0.35766566822357],[0.7953130733285527],[-0.9097759759158794],[-0.404484735263795],[0.6756040134793178],[-0.977336891181207],[-0.6541731675042616],[0.7304951638850893],[-1.3699554234840148],1712639358.523391
267,[-0.7319896610491538],[1.3294923758593906],[-0.6958348945852231],[1.2195226595698514],[-0.4044928830038183],[0.9063878110499233],[-0.8459999171168544],[-0.35766566822357],[0.7953130733285527],[-0.9097759759158794],[-0.404484735263795],[0.6756040134793178],[-0.977336891181207],[-0.6541731675042616],[0.7304951638850893],[-1.3699554234840148],1712639358.534789
268,[-0.7319896610491538],[1.3294923758593906],[-0.6958348945852231],[1.2195226595698514],[-0.4044928830038183],[0.9063878110499233],[-0.8459999171168544],[-0.35766566822357],[0.7953130733285527],[-0.9097759759158794],[-0.404484735263795],[0.6756040134793178],[-0.977336891181207],[-0.6541731675042616],[0.7304951638850893],[-1.3699554234840148],1712639358.545865
269,[-0.7319896610491538],[1.3294923758593906],[-0.6958348945852231],[1.2195226595698514],[-0.4044928830038183],[0.9063878110499233],[-0.8459999171168544],[-0.35766566822357],[0.7953130733285527],[-0.9097759759158794],[-0.404484735263795],[0.6756040134793178],[-0.977336891181207],[-0.6541731675042616],[0.7304951638850893],[-1.3699554234840148],1712639358.5665479
270,[-0.7319896610491538],[1.3294923758593906],[-0.6958348945852231],[1.2195226595698514],[-0.4044928830038183],[0.9063878110499233],[-0.8459999171168544],[-0.35766566822357],[0.7953130733285527],[-0.9097759759158794],[-0.404484735263795],[0.6756040134793178],[-0.977336891181207],[-0.6541731675042616],[0.7304951638850893],[-1.3699554234840148],1712639358.588578
271,[-0.7319896610491538],[1.3294923758593906],[-0.6958348945852231],[1.2195226595698514],[-0.4044928830038183],[0.9063878110499233],[-0.8459999171168544],[-0.35766566822357],[0.7953130733285527],[-0.9097759759158794],[-0.404484735263795],[0.6756040134793178],[-0.977336891181207],[-0.6541731675042616],[0.7304951638850893],[-1.3699554234840148],1712639358.6159942
272,[-0.7319896610491538],[1.3294923758593906],[-0.6958348945852231],[1.2195226595698514],[-0.4044928830038183],[0.9063878110499233],[-0.8459999171168544],[-0.35766566822357],[0.7953130733285527],[-0.9097759759158794],[-0.404484735263795],[0.6756040134793178],[-0.977336891181207],[-0.6541731675042616],[0.7304951638850893],[-1.3699554234840148],1712639358.639093
273,[-0.7319896610491538],[1.3294923758593906],[-0.6958348945852231],[1.2195226595698514],[-0.4044928830038183],[0.9063878110499233],[-0.8459999171168544],[-0.35766566822357],[0.7953130733285527],[-0.9097759759158794],[-0.404484735263795],[0.6756040134793178],[-0.977336891181207],[-0.6541731675042616],[0.7304951638850893],[-1.3699554234840148],1712639358.6546838
274,[-0.7319896610491538],[1.3294923758593906],[-0.6958348945852231],[1.2195226595698514],[-0.4044928830038183],[0.9063878110499233],[-0.8459999171168544],[-0.35766566822357],[0.7953130733285527],[-0.9097759759158794],[-0.404484735263795],[0.6756040134793178],[-0.977336891181207],[-0.6541731675042616],[0.7304951638850893],[-1.3699554234840148],1712639358.666945
275,[-0.7319896610491538],[1.3294923758593906],[-0.6958348945852231],[1.2195226595698514],[-0.4044928830038183],[0.9063878110499233],[-0.8459999171168544],[-0.35766566822357],[0.7953130733285527],[-0.9097759759158794],[-0.404484735263795],[0.6756040134793178],[-0.977336891181207],[-0.6541731675042616],[0.7304951638850893],[-1.3699554234840148],1712639358.68035
276,[-0.7319896610491538],[1.3294923758593906],[-0.6958348945852231],[1.2195226595698514],[-0.4044928830038183],[0.9063878110499233],[-0.8459999171168544],[-0.35766566822357],[0.7953130733285527],[-0.9097759759158794],[-0.404484735263795],[0.6756040134793178],[-0.977336891181207],[-0.6541731675042616],[0.7304951638850893],[-1.3699554234840148],1712639358.707198
277,[-0.7319896610491538],[1.3294923758593906],[-0.6958348945852231],[1.2195226595698514],[-0.4044928830038183],[0.9063878110499233],[-0.8459999171168544],[-0.35766566822357],[0.7953130733285527],[-0.9097759759158794],[-0.404484735263795],[0.6756040134793178],[-0.977336891181207],[-0.6541731675042616],[0.7304951638850893],[-1.3699554234840148],1712639358.719522
278,[-0.7319896610491538],[1.3294923758593906],[-0.6958348945852231],[1.2195226595698514],[-0.4044928830038183],[0.9063878110499233],[-0.8459999171168544],[-0.35766566822357],[0.7953130733285527],[-0.9097759759158794],[-0.404484735263795],[0.6756040134793178],[-0.977336891181207],[-0.6541731675042616],[0.7304951638850893],[-1.3699554234840148],1712639358.733533
279,[-0.7319896610491538],[1.3294923758593906],[-0.6958348945852231],[1.2195226595698514],[-0.4044928830038183],[0.9063878110499233],[-0.8459999171168544],[-0.35766566822357],[0.7953130733285527],[-0.9097759759158794],[-0.404484735263795],[0.6756040134793178],[-0.977336891181207],[-0.6541731675042616],[0.7304951638850893],[-1.3699554234840148],1712639358.747911
280,[-0.7319896610491538],[1.3294923758593906],[-0.6958348945852231],[1.2195226595698514],[-0.4044928830038183],[0.9063878110499233],[-0.8459999171168544],[-0.35766566822357],[0.7953130733285527],[-0.9097759759158794],[-0.404484735263795],[0.6756040134793178],[-0.977336891181207],[-0.6541731675042616],[0.7304951638850893],[-1.3699554234840148],1712639358.776033
281,[-0.7319896610491538],[1.3294923758593906],[-0.6958348945852231],[1.2195226595698514],[-0.4044928830038183],[0.9063878110499233],[-0.8459999171168544],[-0.35766566822357],[0.7953130733285527],[-0.9097759759158794],[-0.404484735263795],[0.6756040134793178],[-0.977336891181207],[-0.6541731675042616],[0.7304951638850893],[-1.3699554234840148],1712639358.79161
282,[-0.7319896610491538],[1.3294923758593906],[-0.6958348945852231],[1.2195226595698514],[-0.4044928830038183],[0.9063878110499233],[-0.8459999171168544],[-0.35766566822357],[0.7953130733285527],[-0.9097759759158794],[-0.404484735263795],[0.6756040134793178],[-0.977336891181207],[-0.6541731675042616],[0.7304951638850893],[-1.3699554234840148],1712639358.814163
283,[-0.7319896610491538],[1.3294923758593906],[-0.6958348945852231],[1.2195226595698514],[-0.4044928830038183],[0.9063878110499233],[-0.8459999171168544],[-0.35766566822357],[0.7953130733285527],[-0.9097759759158794],[-0.404484735263795],[0.6756040134793178],[-0.977336891181207],[-0.6541731675042616],[0.7304951638850893],[-1.3699554234840148],1712639358.833306
284,[-0.7319896610491538],[1.3294923758593906],[-0.6958348945852231],[1.2195226595698514],[-0.4044928830038183],[0.9063878110499233],[-0.8459999171168544],[-0.35766566822357],[0.7953130733285527],[-0.9097759759158794],[-0.404484735263795],[0.6756040134793178],[-0.977336891181207],[-0.6541731675042616],[0.7304951638850893],[-1.3699554234840148],1712639358.866747
285,[-0.7319896610491538],[1.3294923758593906],[-0.6958348945852231],[1.2195226595698514],[-0.4044928830038183],[0.9063878110499233],[-0.8459999171168544],[-0.35766566822357],[0.7953130733285527],[-0.9097759759158794],[-0.404484735263795],[0.6756040134793178],[-0.977336891181207],[-0.6541731675042616],[0.7304951638850893],[-1.3699554234840148],1712639358.886462
286,[-0.7319896610491538],[1.3294923758593906],[-0.6958348945852231],[1.2195226595698514],[-0.4044928830038183],[0.9063878110499233],[-0.8459999171168544],[-0.35766566822357],[0.7953130733285527],[-0.9097759759158794],[-0.404484735263795],[0.6756040134793178],[-0.977336891181207],[-0.6541731675042616],[0.7304951638850893],[-1.3699554234840148],1712639358.900864
287,[-0.7319896610491538],[1.3294923758593906],[-0.6958348945852231],[1.2195226595698514],[-0.4044928830038183],[0.9063878110499233],[-0.8459999171168544],[-0.35766566822357],[0.7953130733285527],[-0.9097759759158794],[-0.404484735263795],[0.6756040134793178],[-0.977336891181207],[-0.6541731675042616],[0.7304951638850893],[-1.3699554234840148],1712639358.939282
288,[-0.7319896610491538],[1.3294923758593906],[-0.6958348945852231],[1.2195226595698514],[-0.4044928830038183],[0.9063878110499233],[-0.8459999171168544],[-0.35766566822357],[0.7953130733285527],[-0.9097759759158794],[-0.404484735263795],[0.6756040134793178],[-0.977336891181207],[-0.6541731675042616],[0.7304951638850893],[-1.3699554234840148],1712639358.9558342
289,[-0.7319896610491538],[1.3294923758593906],[-0.6958348945852231],[1.2195226595698514],[-0.4044928830038183],[0.9063878110499233],[-0.8459999171168544],[-0.35766566822357],[0.7953130733285527],[-0.9097759759158794],[-0.404484735263795],[0.6756040134793178],[-0.977336891181207],[-0.6541731675042616],[0.7304951638850893],[-1.3699554234840148],1712639358.97012
290,[-0.7319896610491538],[1.3294923758593906],[-0.6958348945852231],[1.2195226595698514],[-0.4044928830038183],[0.9063878110499233],[-0.8459999171168544],[-0.35766566822357],[0.7953130733285527],[-0.9097759759158794],[-0.404484735263795],[0.6756040134793178],[-0.977336891181207],[-0.6541731675042616],[0.7304951638850893],[-1.3699554234840148],1712639358.983097
291,[-0.7319896610491538],[1.3294923758593906],[-0.6958348945852231],[1.2195226595698514],[-0.4044928830038183],[0.9063878110499233],[-0.8459999171168544],[-0.35766566822357],[0.7953130733285527],[-0.9097759759158794],[-0.404484735263795],[0.6756040134793178],[-0.977336891181207],[-0.6541731675042616],[0.7304951638850893],[-1.3699554234840148],1712639358.994806
292,[-0.7319896610491538],[1.3294923758593906],[-0.6958348945852231],[1.2195226595698514],[-0.4044928830038183],[0.9063878110499233],[-0.8459999171168544],[-0.35766566822357],[0.7953130733285527],[-0.9097759759158794],[-0.404484735263795],[0.6756040134793178],[-0.977336891181207],[-0.6541731675042616],[0.7304951638850893],[-1.3699554234840148],1712639359.008275
293,[-0.7319896610491538],[1.3294923758593906],[-0.6958348945852231],[1.2195226595698514],[-0.4044928830038183],[0.9063878110499233],[-0.8459999171168544],[-0.35766566822357],[0.7953130733285527],[-0.9097759759158794],[-0.404484735263795],[0.6756040134793178],[-0.977336891181207],[-0.6541731675042616],[0.7304951638850893],[-1.3699554234840148],1712639359.022999
294,[-0.7319896610491538],[1.3294923758593906],[-0.6958348945852231],[1.2195226595698514],[-0.4044928830038183],[0.9063878110499233],[-0.8459999171168544],[-0.35766566822357],[0.7953130733285527],[-0.9097759759158794],[-0.404484735263795],[0.6756040134793178],[-0.977336891181207],[-0.6541731675042616],[0.7304951638850893],[-1.3699554234840148],1712639359.048092
295,[-0.7319896610491538],[1.3294923758593906],[-0.6958348945852231],[1.2195226595698514],[-0.4044928830038183],[0.9063878110499233],[-0.8459999171168544],[-0.35766566822357],[0.7953130733285527],[-0.9097759759158794],[-0.404484735263795],[0.6756040134793178],[-0.977336891181207],[-0.6541731675042616],[0.7304951638850893],[-1.3699554234840148],1712639359.0698261
296,[-0.7319896610491538],[1.3294923758593906],[-0.6958348945852231],[1.2195226595698514],[-0.4044928830038183],[0.9063878110499233],[-0.8459999171168544],[-0.35766566822357],[0.7953130733285527],[-0.9097759759158794],[-0.404484735263795],[0.6756040134793178],[-0.977336891181207],[-0.6541731675042616],[0.7304951638850893],[-1.3699554234840148],1712639359.088799
297,[-0.7319896610491538],[1.3294923758593906],[-0.6958348945852231],[1.2195226595698514],[-0.4044928830038183],[0.9063878110499233],[-0.8459999171168544],[-0.35766566822357],[0.7953130733285527],[-0.9097759759158794],[-0.404484735263795],[0.6756040134793178],[-0.977336891181207],[-0.6541731675042616],[0.7304951638850893],[-1.3699554234840148],1712639359.10013
298,[-0.7319896610491538],[1.3294923758593906],[-0.6958348945852231],[1.2195226595698514],[-0.4044928830038183],[0.9063878110499233],[-0.8459999171168544],[-0.35766566822357],[0.7953130733285527],[-0.9097759759158794],[-0.404484735263795],[0.6756040134793178],[-0.977336891181207],[-0.6541731675042616],[0.7304951638850893],[-1.3699554234840148],1712639359.117714
299,[-0.7319896610491538],[1.3294923758593906],[-0.6958348945852231],[1.2195226595698514],[-0.4044928830038183],[0.9063878110499233],[-0.8459999171168544],[-0.35766566822357],[0.7953130733285527],[-0.9097759759158794],[-0.404484735263795],[0.6756040134793178],[-0.977336891181207],[-0.6541731675042616],[0.7304951638850893],[-1.3699554234840148],1712639359.1300192
300,[-0.7319896610491538],[1.3294923758593906],[-0.6958348945852231],[1.2195226595698514],[-0.4044928830038183],[0.9063878110499233],[-0.8459999171168544],[-0.35766566822357],[0.7953130733285527],[-0.9097759759158794],[-0.404484735263795],[0.6756040134793178],[-0.977336891181207],[-0.6541731675042616],[0.7304951638850893],[-1.3699554234840148],1712639359.142554
301,[-0.7319896610491538],[1.3294923758593906],[-0.6958348945852231],[1.2195226595698514],[-0.4044928830038183],[0.9063878110499233],[-0.8459999171168544],[-0.35766566822357],[0.7953130733285527],[-0.9097759759158794],[-0.404484735263795],[0.6756040134793178],[-0.977336891181207],[-0.6541731675042616],[0.7304951638850893],[-1.3699554234840148],1712639359.192516
302,[-0.7319896610491538],[1.3294923758593906],[-0.6958348945852231],[1.2195226595698514],[-0.4044928830038183],[0.9063878110499233],[-0.8459999171168544],[-0.35766566822357],[0.7953130733285527],[-0.9097759759158794],[-0.404484735263795],[0.6756040134793178],[-0.977336891181207],[-0.6541731675042616],[0.7304951638850893],[-1.3699554234840148],1712639359.2090209
303,[-0.7319896610491538],[1.3294923758593906],[-0.6958348945852231],[1.2195226595698514],[-0.4044928830038183],[0.9063878110499233],[-0.8459999171168544],[-0.35766566822357],[0.7953130733285527],[-0.9097759759158794],[-0.404484735263795],[0.6756040134793178],[-0.977336891181207],[-0.6541731675042616],[0.7304951638850893],[-1.3699554234840148],1712639359.220918
304,[-0.7319896610491538],[1.3294923758593906],[-0.6958348945852231],[1.2195226595698514],[-0.4044928830038183],[0.9063878110499233],[-0.8459999171168544],[-0.35766566822357],[0.7953130733285527],[-0.9097759759158794],[-0.404484735263795],[0.6756040134793178],[-0.977336891181207],[-0.6541731675042616],[0.7304951638850893],[-1.3699554234840148],1712639359.2328808
305,[-0.7319896610491538],[1.3294923758593906],[-0.6958348945852231],[1.2195226595698514],[-0.4044928830038183],[0.9063878110499233],[-0.8459999171168544],[-0.35766566822357],[0.7953130733285527],[-0.9097759759158794],[-0.404484735263795],[0.6756040134793178],[-0.977336891181207],[-0.6541731675042616],[0.7304951638850893],[-1.3699554234840148],1712639359.321884
306,[-0.7319896610491538],[1.3294923758593906],[-0.6958348945852231],[1.2195226595698514],[-0.4044928830038183],[0.9063878110499233],[-0.8459999171168544],[-0.35766566822357],[0.7953130733285527],[-0.9097759759158794],[-0.404484735263795],[0.6756040134793178],[-0.977336891181207],[-0.6541731675042616],[0.7304951638850893],[-1.3699554234840148],1712639359.337933
307,[-0.7319896610491538],[1.3294923758593906],[-0.6958348945852231],[1.2195226595698514],[-0.4044928830038183],[0.9063878110499233],[-0.8459999171168544],[-0.35766566822357],[0.7953130733285527],[-0.9097759759158794],[-0.404484735263795],[0.6756040134793178],[-0.977336891181207],[-0.6541731675042616],[0.7304951638850893],[-1.3699554234840148],1712639359.3550231
308,[-0.7319896610491538],[1.3294923758593906],[-0.6958348945852231],[1.2195226595698514],[-0.4044928830038183],[0.9063878110499233],[-0.8459999171168544],[-0.35766566822357],[0.7953130733285527],[-0.9097759759158794],[-0.404484735263795],[0.6756040134793178],[-0.977336891181207],[-0.6541731675042616],[0.7304951638850893],[-1.3699554234840148],1712639359.3966131
309,[-0.7319896610491538],[1.3294923758593906],[-0.6958348945852231],[1.2195226595698514],[-0.4044928830038183],[0.9063878110499233],[-0.8459999171168544],[-0.35766566822357],[0.7953130733285527],[-0.9097759759158794],[-0.404484735263795],[0.6756040134793178],[-0.977336891181207],[-0.6541731675042616],[0.7304951638850893],[-1.3699554234840148],1712639359.442519
310,[-0.7319896610491538],[1.3294923758593906],[-0.6958348945852231],[1.2195226595698514],[-0.4044928830038183],[0.9063878110499233],[-0.8459999171168544],[-0.35766566822357],[0.7953130733285527],[-0.9097759759158794],[-0.404484735263795],[0.6756040134793178],[-0.977336891181207],[-0.6541731675042616],[0.7304951638850893],[-1.3699554234840148],1712639359.455132
311,[-0.7319896610491538],[1.3294923758593906],[-0.6958348945852231],[1.2195226595698514],[-0.4044928830038183],[0.9063878110499233],[-0.8459999171168544],[-0.35766566822357],[0.7953130733285527],[-0.9097759759158794],[-0.404484735263795],[0.6756040134793178],[-0.977336891181207],[-0.6541731675042616],[0.7304951638850893],[-1.3699554234840148],1712639359.467705
312,[-0.7319896610491538],[1.3294923758593906],[-0.6958348945852231],[1.2195226595698514],[-0.4044928830038183],[0.9063878110499233],[-0.8459999171168544],[-0.35766566822357],[0.7953130733285527],[-0.9097759759158794],[-0.404484735263795],[0.6756040134793178],[-0.977336891181207],[-0.6541731675042616],[0.7304951638850893],[-1.3699554234840148],1712639359.487869
313,[-0.7319896610491538],[1.3294923758593906],[-0.6958348945852231],[1.2195226595698514],[-0.4044928830038183],[0.9063878110499233],[-0.8459999171168544],[-0.35766566822357],[0.7953130733285527],[-0.9097759759158794],[-0.404484735263795],[0.6756040134793178],[-0.977336891181207],[-0.6541731675042616],[0.7304951638850893],[-1.3699554234840148],1712639359.509692
314,[-0.7319896610491538],[1.3294923758593906],[-0.6958348945852231],[1.2195226595698514],[-0.4044928830038183],[0.9063878110499233],[-0.8459999171168544],[-0.35766566822357],[0.7953130733285527],[-0.9097759759158794],[-0.404484735263795],[0.6756040134793178],[-0.977336891181207],[-0.6541731675042616],[0.7304951638850893],[-1.3699554234840148],1712639359.525717
315,[-0.7319896610491538],[1.3294923758593906],[-0.6958348945852231],[1.2195226595698514],[-0.4044928830038183],[0.9063878110499233],[-0.8459999171168544],[-0.35766566822357],[0.7953130733285527],[-0.9097759759158794],[-0.404484735263795],[0.6756040134793178],[-0.977336891181207],[-0.6541731675042616],[0.7304951638850893],[-1.3699554234840148],1712639359.53828
316,[-0.7319896610491538],[1.3294923758593906],[-0.6958348945852231],[1.2195226595698514],[-0.4044928830038183],[0.9063878110499233],[-0.8459999171168544],[-0.35766566822357],[0.7953130733285527],[-0.9097759759158794],[-0.404484735263795],[0.6756040134793178],[-0.977336891181207],[-0.6541731675042616],[0.7304951638850893],[-1.3699554234840148],1712639359.552305
317,[-0.7319896610491538],[1.3294923758593906],[-0.6958348945852231],[1.2195226595698514],[-0.4044928830038183],[0.9063878110499233],[-0.8459999171168544],[-0.35766566822357],[0.7953130733285527],[-0.9097759759158794],[-0.404484735263795],[0.6756040134793178],[-0.977336891181207],[-0.6541731675042616],[0.7304951638850893],[-1.3699554234840148],1712639359.574214
318,[-0.7319896610491538],[1.3294923758593906],[-0.6958348945852231],[1.2195226595698514],[-0.4044928830038183],[0.9063878110499233],[-0.8459999171168544],[-0.35766566822357],[0.7953130733285527],[-0.9097759759158794],[-0.404484735263795],[0.6756040134793178],[-0.977336891181207],[-0.6541731675042616],[0.7304951638850893],[-1.3699554234840148],1712639359.588647
319,[-0.7319896610491538],[1.3294923758593906],[-0.6958348945852231],[1.2195226595698514],[-0.4044928830038183],[0.9063878110499233],[-0.8459999171168544],[-0.35766566822357],[0.7953130733285527],[-0.9097759759158794],[-0.404484735263795],[0.6756040134793178],[-0.977336891181207],[-0.6541731675042616],[0.7304951638850893],[-1.3699554234840148],1712639359.612479
320,[-0.7319896610491538],[1.3294923758593906],[-0.6958348945852231],[1.2195226595698514],[-0.4044928830038183],[0.9063878110499233],[-0.8459999171168544],[-0.35766566822357],[0.7953130733285527],[-0.9097759759158794],[-0.404484735263795],[0.6756040134793178],[-0.977336891181207],[-0.6541731675042616],[0.7304951638850893],[-1.3699554234840148],1712639359.623125
321,[-0.7319896610491538],[1.3294923758593906],[-0.6958348945852231],[1.2195226595698514],[-0.4044928830038183],[0.9063878110499233],[-0.8459999171168544],[-0.35766566822357],[0.7953130733285527],[-0.9097759759158794],[-0.404484735263795],[0.6756040134793178],[-0.977336891181207],[-0.6541731675042616],[0.7304951638850893],[-1.3699554234840148],1712639359.654302
322,[-0.7319896610491538],[1.3294923758593906],[-0.6958348945852231],[1.2195226595698514],[-0.4044928830038183],[0.9063878110499233],[-0.8459999171168544],[-0.35766566822357],[0.7953130733285527],[-0.9097759759158794],[-0.404484735263795],[0.6756040134793178],[-0.977336891181207],[-0.6541731675042616],[0.7304951638850893],[-1.3699554234840148],1712639359.6970618
